0	3.66300366300365	3.66300366300365	
0.0005	3.66300366300365	3.66300366300365	
0.001	3.66300366300365	3.66300366300365	
0.0015	3.66300366300365	3.66300366300365	
0.002	3.66300366300365	3.66300366300365	
0.0025	3.66300366300365	3.66300366300365	
0.003	3.66300366300365	3.66300366300365	
0.0035	3.66300366300365	3.66300366300365	
0.004	3.66300366300365	3.66300366300365	
0.0045	3.66300366300365	3.66300366300365	
0.005	3.66300366300365	3.66300366300365	
0.0055	3.66300366300365	3.66300366300365	
0.006	3.66300366300365	3.66300366300365	
0.0065	3.66300366300365	3.66300366300365	
0.007	3.66300366300365	3.66300366300365	
0.0075	3.66300366300365	3.66300366300365	
0.008	3.66300366300365	8.54700854700852	
0.0085	3.66300366300365	3.66300366300365	
0.009	3.66300366300365	3.66300366300365	
0.0095	3.66300366300365	3.66300366300365	
0.01	3.66300366300365	3.66300366300365	
0.0105	3.66300366300365	-1.22100122100122	
0.011	3.66300366300365	3.66300366300365	
0.0115	3.66300366300365	3.66300366300365	
0.012	3.66300366300365	3.66300366300365	
0.0125	3.66300366300365	3.66300366300365	
0.013	3.66300366300365	3.66300366300365	
0.0135	3.66300366300365	3.66300366300365	
0.014	3.66300366300365	3.66300366300365	
0.0145	3.66300366300365	3.66300366300365	
0.015	3.66300366300365	3.66300366300365	
0.0155	3.66300366300365	3.66300366300365	
0.016	3.66300366300365	3.66300366300365	
0.0165	3.66300366300365	3.66300366300365	
0.017	3.66300366300365	3.66300366300365	
0.0175	3.66300366300365	3.66300366300365	
0.018	3.66300366300365	3.66300366300365	
0.0185	3.66300366300365	3.66300366300365	
0.019	3.66300366300365	3.66300366300365	
0.0195	3.66300366300365	3.66300366300365	
0.02	3.66300366300365	3.66300366300365	
0.0205	3.66300366300365	3.66300366300365	
0.021	3.66300366300365	3.66300366300365	
0.0215	3.66300366300365	3.66300366300365	
0.022	3.66300366300365	8.54700854700852	
0.0225	3.66300366300365	3.66300366300365	
0.023	3.66300366300365	3.66300366300365	
0.0235	3.66300366300365	3.66300366300365	
0.024	3.66300366300365	3.66300366300365	
0.0245	3.66300366300365	3.66300366300365	
0.025	3.66300366300365	3.66300366300365	
0.0255	3.66300366300365	3.66300366300365	
0.026	3.66300366300365	3.66300366300365	
0.0265	3.66300366300365	3.66300366300365	
0.027	3.66300366300365	3.66300366300365	
0.0275	3.66300366300365	3.66300366300365	
0.028	3.66300366300365	3.66300366300365	
0.0285	3.66300366300365	3.66300366300365	
0.029	3.66300366300365	3.66300366300365	
0.0295	3.66300366300365	3.66300366300365	
0.03	3.66300366300365	-1.22100122100122	
0.0305	3.66300366300365	-1.22100122100122	
0.031	3.66300366300365	3.66300366300365	
0.0315	3.66300366300365	3.66300366300365	
0.032	3.66300366300365	3.66300366300365	
0.0325	3.66300366300365	3.66300366300365	
0.033	3.66300366300365	3.66300366300365	
0.0335	3.66300366300365	3.66300366300365	
0.034	3.66300366300365	3.66300366300365	
0.0345	3.66300366300365	3.66300366300365	
0.035	3.66300366300365	3.66300366300365	
0.0355	3.66300366300365	3.66300366300365	
0.036	3.66300366300365	3.66300366300365	
0.0365	3.66300366300365	3.66300366300365	
0.037	3.66300366300365	3.66300366300365	
0.0375	3.66300366300365	3.66300366300365	
0.038	3.66300366300365	3.66300366300365	
0.0385	3.66300366300365	3.66300366300365	
0.039	3.66300366300365	3.66300366300365	
0.0395	3.66300366300365	3.66300366300365	
0.04	3.66300366300365	3.66300366300365	
0.0405	3.66300366300365	3.66300366300365	
0.041	3.66300366300365	3.66300366300365	
0.0415	3.66300366300365	3.66300366300365	
0.042	3.66300366300365	3.66300366300365	
0.0425	3.66300366300365	3.66300366300365	
0.043	3.66300366300365	3.66300366300365	
0.0435	3.66300366300365	3.66300366300365	
0.044	8.54700854700852	3.66300366300365	
0.0445	3.66300366300365	3.66300366300365	
0.045	3.66300366300365	3.66300366300365	
0.0455	3.66300366300365	3.66300366300365	
0.046	3.66300366300365	3.66300366300365	
0.0465	3.66300366300365	3.66300366300365	
0.047	3.66300366300365	3.66300366300365	
0.0475	3.66300366300365	3.66300366300365	
0.048	3.66300366300365	3.66300366300365	
0.0485	3.66300366300365	3.66300366300365	
0.049	3.66300366300365	3.66300366300365	
0.0495	3.66300366300365	3.66300366300365	
0.05	3.66300366300365	3.66300366300365	
0.0505	3.66300366300365	3.66300366300365	
0.051	3.66300366300365	3.66300366300365	
0.0515	3.66300366300365	3.66300366300365	
0.052	3.66300366300365	3.66300366300365	
0.0525	3.66300366300365	3.66300366300365	
0.053	3.66300366300365	3.66300366300365	
0.0535	3.66300366300365	3.66300366300365	
0.054	3.66300366300365	3.66300366300365	
0.0545	3.66300366300365	3.66300366300365	
0.055	3.66300366300365	3.66300366300365	
0.0555	3.66300366300365	3.66300366300365	
0.056	3.66300366300365	3.66300366300365	
0.0565	3.66300366300365	3.66300366300365	
0.057	3.66300366300365	3.66300366300365	
0.0575	3.66300366300365	3.66300366300365	
0.058	3.66300366300365	3.66300366300365	
0.0585	3.66300366300365	3.66300366300365	
0.059	3.66300366300365	3.66300366300365	
0.0595	3.66300366300365	3.66300366300365	
0.06	3.66300366300365	3.66300366300365	
0.0605	3.66300366300365	3.66300366300365	
0.061	3.66300366300365	3.66300366300365	
0.0615	3.66300366300365	3.66300366300365	
0.062	3.66300366300365	3.66300366300365	
0.0625	3.66300366300365	3.66300366300365	
0.063	3.66300366300365	3.66300366300365	
0.0635	3.66300366300365	3.66300366300365	
0.064	3.66300366300365	-1.22100122100122	
0.0645	3.66300366300365	-1.22100122100122	
0.065	3.66300366300365	-1.22100122100122	
0.0655	3.66300366300365	3.66300366300365	
0.066	3.66300366300365	3.66300366300365	
0.0665	3.66300366300365	3.66300366300365	
0.067	3.66300366300365	3.66300366300365	
0.0675	3.66300366300365	3.66300366300365	
0.068	3.66300366300365	3.66300366300365	
0.0685	8.54700854700852	3.66300366300365	
0.069	3.66300366300365	3.66300366300365	
0.0695	3.66300366300365	3.66300366300365	
0.07	3.66300366300365	3.66300366300365	
0.0705	3.66300366300365	3.66300366300365	
0.071	3.66300366300365	3.66300366300365	
0.0715	3.66300366300365	3.66300366300365	
0.072	3.66300366300365	3.66300366300365	
0.0725	3.66300366300365	3.66300366300365	
0.073	3.66300366300365	3.66300366300365	
0.0735	3.66300366300365	3.66300366300365	
0.074	3.66300366300365	3.66300366300365	
0.0745	3.66300366300365	3.66300366300365	
0.075	3.66300366300365	3.66300366300365	
0.0755	3.66300366300365	3.66300366300365	
0.076	3.66300366300365	3.66300366300365	
0.0765	3.66300366300365	3.66300366300365	
0.077	3.66300366300365	3.66300366300365	
0.0775	3.66300366300365	3.66300366300365	
0.078	3.66300366300365	3.66300366300365	
0.0785	3.66300366300365	3.66300366300365	
0.079	3.66300366300365	3.66300366300365	
0.0795	3.66300366300365	3.66300366300365	
0.08	3.66300366300365	3.66300366300365	
0.0805	3.66300366300365	3.66300366300365	
0.081	3.66300366300365	3.66300366300365	
0.0815	3.66300366300365	3.66300366300365	
0.082	3.66300366300365	3.66300366300365	
0.0825	3.66300366300365	3.66300366300365	
0.083	3.66300366300365	-1.22100122100122	
0.0835	3.66300366300365	-1.22100122100122	
0.084	3.66300366300365	3.66300366300365	
0.0845	3.66300366300365	3.66300366300365	
0.085	3.66300366300365	3.66300366300365	
0.0855	3.66300366300365	3.66300366300365	
0.086	3.66300366300365	3.66300366300365	
0.0865	3.66300366300365	3.66300366300365	
0.087	3.66300366300365	3.66300366300365	
0.0875	3.66300366300365	3.66300366300365	
0.088	3.66300366300365	3.66300366300365	
0.0885	3.66300366300365	3.66300366300365	
0.089	3.66300366300365	8.54700854700852	
0.0895	3.66300366300365	3.66300366300365	
0.09	3.66300366300365	3.66300366300365	
0.0905	3.66300366300365	3.66300366300365	
0.091	3.66300366300365	3.66300366300365	
0.0915	3.66300366300365	3.66300366300365	
0.092	3.66300366300365	8.54700854700852	
0.0925	3.66300366300365	8.54700854700852	
0.093	3.66300366300365	8.54700854700852	
0.0935	3.66300366300365	3.66300366300365	
0.094	3.66300366300365	3.66300366300365	
0.0945	3.66300366300365	3.66300366300365	
0.095	3.66300366300365	-1.22100122100122	
0.0955	3.66300366300365	3.66300366300365	
0.096	3.66300366300365	-1.22100122100122	
0.0965	3.66300366300365	-1.22100122100122	
0.097	3.66300366300365	3.66300366300365	
0.0975	3.66300366300365	3.66300366300365	
0.098	3.66300366300365	3.66300366300365	
0.0985	3.66300366300365	3.66300366300365	
0.099	3.66300366300365	3.66300366300365	
0.0995	3.66300366300365	3.66300366300365	
0.1	3.66300366300365	3.66300366300365	
0.1005	3.66300366300365	3.66300366300365	
0.101	3.66300366300365	3.66300366300365	
0.1015	3.66300366300365	3.66300366300365	
0.102	3.66300366300365	3.66300366300365	
0.1025	3.66300366300365	3.66300366300365	
0.103	3.66300366300365	3.66300366300365	
0.1035	3.66300366300365	3.66300366300365	
0.104	3.66300366300365	3.66300366300365	
0.1045	3.66300366300365	3.66300366300365	
0.105	3.66300366300365	3.66300366300365	
0.1055	3.66300366300365	3.66300366300365	
0.106	3.66300366300365	3.66300366300365	
0.1065	3.66300366300365	3.66300366300365	
0.107	3.66300366300365	3.66300366300365	
0.1075	3.66300366300365	3.66300366300365	
0.108	3.66300366300365	3.66300366300365	
0.1085	3.66300366300365	3.66300366300365	
0.109	3.66300366300365	3.66300366300365	
0.1095	3.66300366300365	3.66300366300365	
0.11	3.66300366300365	3.66300366300365	
0.1105	3.66300366300365	3.66300366300365	
0.111	3.66300366300365	3.66300366300365	
0.1115	3.66300366300365	3.66300366300365	
0.112	3.66300366300365	3.66300366300365	
0.1125	3.66300366300365	3.66300366300365	
0.113	3.66300366300365	3.66300366300365	
0.1135	3.66300366300365	3.66300366300365	
0.114	3.66300366300365	3.66300366300365	
0.1145	3.66300366300365	3.66300366300365	
0.115	3.66300366300365	3.66300366300365	
0.1155	3.66300366300365	3.66300366300365	
0.116	3.66300366300365	3.66300366300365	
0.1165	3.66300366300365	3.66300366300365	
0.117	3.66300366300365	3.66300366300365	
0.1175	3.66300366300365	3.66300366300365	
0.118	3.66300366300365	3.66300366300365	
0.1185	3.66300366300365	3.66300366300365	
0.119	3.66300366300365	3.66300366300365	
0.1195	3.66300366300365	3.66300366300365	
0.12	3.66300366300365	3.66300366300365	
0.1205	3.66300366300365	3.66300366300365	
0.121	3.66300366300365	3.66300366300365	
0.1215	3.66300366300365	3.66300366300365	
0.122	3.66300366300365	3.66300366300365	
0.1225	3.66300366300365	3.66300366300365	
0.123	3.66300366300365	3.66300366300365	
0.1235	3.66300366300365	3.66300366300365	
0.124	3.66300366300365	3.66300366300365	
0.1245	3.66300366300365	3.66300366300365	
0.125	3.66300366300365	3.66300366300365	
0.1255	3.66300366300365	3.66300366300365	
0.126	3.66300366300365	3.66300366300365	
0.1265	3.66300366300365	3.66300366300365	
0.127	3.66300366300365	3.66300366300365	
0.1275	3.66300366300365	3.66300366300365	
0.128	3.66300366300365	3.66300366300365	
0.1285	3.66300366300365	3.66300366300365	
0.129	3.66300366300365	3.66300366300365	
0.1295	3.66300366300365	3.66300366300365	
0.13	3.66300366300365	3.66300366300365	
0.1305	3.66300366300365	3.66300366300365	
0.131	3.66300366300365	3.66300366300365	
0.1315	3.66300366300365	3.66300366300365	
0.132	3.66300366300365	3.66300366300365	
0.1325	3.66300366300365	3.66300366300365	
0.133	3.66300366300365	3.66300366300365	
0.1335	3.66300366300365	-1.22100122100122	
0.134	3.66300366300365	-1.22100122100122	
0.1345	3.66300366300365	3.66300366300365	
0.135	3.66300366300365	3.66300366300365	
0.1355	3.66300366300365	3.66300366300365	
0.136	3.66300366300365	3.66300366300365	
0.1365	3.66300366300365	3.66300366300365	
0.137	3.66300366300365	3.66300366300365	
0.1375	3.66300366300365	3.66300366300365	
0.138	3.66300366300365	3.66300366300365	
0.1385	3.66300366300365	3.66300366300365	
0.139	3.66300366300365	3.66300366300365	
0.1395	3.66300366300365	3.66300366300365	
0.14	3.66300366300365	8.54700854700852	
0.1405	3.66300366300365	3.66300366300365	
0.141	8.54700854700852	3.66300366300365	
0.1415	3.66300366300365	3.66300366300365	
0.142	3.66300366300365	3.66300366300365	
0.1425	3.66300366300365	3.66300366300365	
0.143	3.66300366300365	3.66300366300365	
0.1435	3.66300366300365	3.66300366300365	
0.144	3.66300366300365	3.66300366300365	
0.1445	3.66300366300365	3.66300366300365	
0.145	3.66300366300365	3.66300366300365	
0.1455	3.66300366300365	3.66300366300365	
0.146	3.66300366300365	3.66300366300365	
0.1465	3.66300366300365	3.66300366300365	
0.147	3.66300366300365	3.66300366300365	
0.1475	3.66300366300365	3.66300366300365	
0.148	3.66300366300365	3.66300366300365	
0.1485	3.66300366300365	3.66300366300365	
0.149	3.66300366300365	3.66300366300365	
0.1495	3.66300366300365	3.66300366300365	
0.15	3.66300366300365	3.66300366300365	
0.1505	3.66300366300365	3.66300366300365	
0.151	3.66300366300365	3.66300366300365	
0.1515	3.66300366300365	3.66300366300365	
0.152	3.66300366300365	3.66300366300365	
0.1525	3.66300366300365	3.66300366300365	
0.153	3.66300366300365	3.66300366300365	
0.1535	3.66300366300365	3.66300366300365	
0.154	3.66300366300365	3.66300366300365	
0.1545	3.66300366300365	3.66300366300365	
0.155	3.66300366300365	3.66300366300365	
0.1555	3.66300366300365	3.66300366300365	
0.156	3.66300366300365	3.66300366300365	
0.1565	3.66300366300365	3.66300366300365	
0.157	3.66300366300365	3.66300366300365	
0.1575	3.66300366300365	3.66300366300365	
0.158	3.66300366300365	3.66300366300365	
0.1585	3.66300366300365	3.66300366300365	
0.159	3.66300366300365	3.66300366300365	
0.1595	3.66300366300365	3.66300366300365	
0.16	3.66300366300365	3.66300366300365	
0.1605	3.66300366300365	3.66300366300365	
0.161	3.66300366300365	3.66300366300365	
0.1615	3.66300366300365	3.66300366300365	
0.162	3.66300366300365	3.66300366300365	
0.1625	3.66300366300365	3.66300366300365	
0.163	3.66300366300365	3.66300366300365	
0.1635	3.66300366300365	3.66300366300365	
0.164	3.66300366300365	3.66300366300365	
0.1645	3.66300366300365	3.66300366300365	
0.165	3.66300366300365	3.66300366300365	
0.1655	3.66300366300365	3.66300366300365	
0.166	3.66300366300365	3.66300366300365	
0.1665	3.66300366300365	3.66300366300365	
0.167	3.66300366300365	3.66300366300365	
0.1675	3.66300366300365	3.66300366300365	
0.168	3.66300366300365	3.66300366300365	
0.1685	3.66300366300365	3.66300366300365	
0.169	3.66300366300365	3.66300366300365	
0.1695	3.66300366300365	3.66300366300365	
0.17	3.66300366300365	3.66300366300365	
0.1705	3.66300366300365	3.66300366300365	
0.171	3.66300366300365	3.66300366300365	
0.1715	3.66300366300365	3.66300366300365	
0.172	3.66300366300365	3.66300366300365	
0.1725	3.66300366300365	3.66300366300365	
0.173	3.66300366300365	3.66300366300365	
0.1735	3.66300366300365	3.66300366300365	
0.174	3.66300366300365	3.66300366300365	
0.1745	3.66300366300365	3.66300366300365	
0.175	3.66300366300365	3.66300366300365	
0.1755	3.66300366300365	3.66300366300365	
0.176	3.66300366300365	3.66300366300365	
0.1765	3.66300366300365	3.66300366300365	
0.177	3.66300366300365	3.66300366300365	
0.1775	3.66300366300365	3.66300366300365	
0.178	3.66300366300365	3.66300366300365	
0.1785	3.66300366300365	3.66300366300365	
0.179	3.66300366300365	3.66300366300365	
0.1795	3.66300366300365	3.66300366300365	
0.18	3.66300366300365	3.66300366300365	
0.1805	3.66300366300365	3.66300366300365	
0.181	3.66300366300365	3.66300366300365	
0.1815	3.66300366300365	3.66300366300365	
0.182	3.66300366300365	3.66300366300365	
0.1825	3.66300366300365	3.66300366300365	
0.183	3.66300366300365	3.66300366300365	
0.1835	3.66300366300365	3.66300366300365	
0.184	3.66300366300365	3.66300366300365	
0.1845	3.66300366300365	3.66300366300365	
0.185	3.66300366300365	3.66300366300365	
0.1855	3.66300366300365	3.66300366300365	
0.186	3.66300366300365	3.66300366300365	
0.1865	3.66300366300365	3.66300366300365	
0.187	3.66300366300365	3.66300366300365	
0.1875	3.66300366300365	3.66300366300365	
0.188	3.66300366300365	3.66300366300365	
0.1885	3.66300366300365	3.66300366300365	
0.189	3.66300366300365	3.66300366300365	
0.1895	3.66300366300365	3.66300366300365	
0.19	3.66300366300365	3.66300366300365	
0.1905	3.66300366300365	3.66300366300365	
0.191	3.66300366300365	3.66300366300365	
0.1915	3.66300366300365	3.66300366300365	
0.192	3.66300366300365	3.66300366300365	
0.1925	3.66300366300365	3.66300366300365	
0.193	3.66300366300365	3.66300366300365	
0.1935	3.66300366300365	3.66300366300365	
0.194	3.66300366300365	3.66300366300365	
0.1945	3.66300366300365	3.66300366300365	
0.195	3.66300366300365	3.66300366300365	
0.1955	3.66300366300365	3.66300366300365	
0.196	3.66300366300365	3.66300366300365	
0.1965	3.66300366300365	3.66300366300365	
0.197	3.66300366300365	3.66300366300365	
0.1975	3.66300366300365	3.66300366300365	
0.198	3.66300366300365	3.66300366300365	
0.1985	3.66300366300365	3.66300366300365	
0.199	3.66300366300365	3.66300366300365	
0.1995	3.66300366300365	3.66300366300365	
0.2	3.66300366300365	3.66300366300365	
0.2005	3.66300366300365	3.66300366300365	
0.201	3.66300366300365	3.66300366300365	
0.2015	3.66300366300365	3.66300366300365	
0.202	3.66300366300365	3.66300366300365	
0.2025	3.66300366300365	3.66300366300365	
0.203	3.66300366300365	3.66300366300365	
0.2035	3.66300366300365	3.66300366300365	
0.204	3.66300366300365	8.54700854700852	
0.2045	3.66300366300365	3.66300366300365	
0.205	3.66300366300365	3.66300366300365	
0.2055	3.66300366300365	3.66300366300365	
0.206	3.66300366300365	3.66300366300365	
0.2065	3.66300366300365	3.66300366300365	
0.207	3.66300366300365	3.66300366300365	
0.2075	3.66300366300365	3.66300366300365	
0.208	3.66300366300365	3.66300366300365	
0.2085	3.66300366300365	3.66300366300365	
0.209	3.66300366300365	3.66300366300365	
0.2095	3.66300366300365	3.66300366300365	
0.21	3.66300366300365	3.66300366300365	
0.2105	3.66300366300365	3.66300366300365	
0.211	3.66300366300365	3.66300366300365	
0.2115	3.66300366300365	3.66300366300365	
0.212	3.66300366300365	3.66300366300365	
0.2125	3.66300366300365	3.66300366300365	
0.213	3.66300366300365	3.66300366300365	
0.2135	3.66300366300365	3.66300366300365	
0.214	3.66300366300365	3.66300366300365	
0.2145	3.66300366300365	3.66300366300365	
0.215	3.66300366300365	3.66300366300365	
0.2155	3.66300366300365	3.66300366300365	
0.216	3.66300366300365	3.66300366300365	
0.2165	3.66300366300365	3.66300366300365	
0.217	3.66300366300365	3.66300366300365	
0.2175	3.66300366300365	3.66300366300365	
0.218	3.66300366300365	3.66300366300365	
0.2185	3.66300366300365	3.66300366300365	
0.219	3.66300366300365	3.66300366300365	
0.2195	3.66300366300365	3.66300366300365	
0.22	3.66300366300365	3.66300366300365	
0.2205	3.66300366300365	3.66300366300365	
0.221	3.66300366300365	3.66300366300365	
0.2215	3.66300366300365	3.66300366300365	
0.222	3.66300366300365	3.66300366300365	
0.2225	3.66300366300365	3.66300366300365	
0.223	3.66300366300365	3.66300366300365	
0.2235	3.66300366300365	3.66300366300365	
0.224	3.66300366300365	3.66300366300365	
0.2245	3.66300366300365	3.66300366300365	
0.225	3.66300366300365	3.66300366300365	
0.2255	3.66300366300365	3.66300366300365	
0.226	3.66300366300365	3.66300366300365	
0.2265	3.66300366300365	3.66300366300365	
0.227	3.66300366300365	3.66300366300365	
0.2275	8.54700854700852	3.66300366300365	
0.228	3.66300366300365	8.54700854700852	
0.2285	3.66300366300365	3.66300366300365	
0.229	3.66300366300365	3.66300366300365	
0.2295	3.66300366300365	3.66300366300365	
0.23	3.66300366300365	3.66300366300365	
0.2305	3.66300366300365	3.66300366300365	
0.231	3.66300366300365	3.66300366300365	
0.2315	3.66300366300365	3.66300366300365	
0.232	3.66300366300365	3.66300366300365	
0.2325	3.66300366300365	-1.22100122100122	
0.233	3.66300366300365	-1.22100122100122	
0.2335	3.66300366300365	3.66300366300365	
0.234	3.66300366300365	-1.22100122100122	
0.2345	3.66300366300365	-1.22100122100122	
0.235	3.66300366300365	-1.22100122100122	
0.2355	3.66300366300365	-1.22100122100122	
0.236	3.66300366300365	-1.22100122100122	
0.2365	3.66300366300365	-1.22100122100122	
0.237	3.66300366300365	-1.22100122100122	
0.2375	3.66300366300365	3.66300366300365	
0.238	3.66300366300365	3.66300366300365	
0.2385	3.66300366300365	3.66300366300365	
0.239	3.66300366300365	3.66300366300365	
0.2395	3.66300366300365	3.66300366300365	
0.24	3.66300366300365	3.66300366300365	
0.2405	3.66300366300365	3.66300366300365	
0.241	3.66300366300365	3.66300366300365	
0.2415	3.66300366300365	3.66300366300365	
0.242	3.66300366300365	3.66300366300365	
0.2425	3.66300366300365	3.66300366300365	
0.243	3.66300366300365	3.66300366300365	
0.2435	3.66300366300365	3.66300366300365	
0.244	3.66300366300365	3.66300366300365	
0.2445	3.66300366300365	3.66300366300365	
0.245	3.66300366300365	3.66300366300365	
0.2455	3.66300366300365	3.66300366300365	
0.246	3.66300366300365	3.66300366300365	
0.2465	3.66300366300365	3.66300366300365	
0.247	3.66300366300365	3.66300366300365	
0.2475	3.66300366300365	3.66300366300365	
0.248	3.66300366300365	3.66300366300365	
0.2485	3.66300366300365	3.66300366300365	
0.249	3.66300366300365	3.66300366300365	
0.2495	3.66300366300365	3.66300366300365	
0.25	3.66300366300365	3.66300366300365	
0.2505	3.66300366300365	3.66300366300365	
0.251	3.66300366300365	3.66300366300365	
0.2515	3.66300366300365	3.66300366300365	
0.252	3.66300366300365	3.66300366300365	
0.2525	3.66300366300365	3.66300366300365	
0.253	3.66300366300365	3.66300366300365	
0.2535	3.66300366300365	3.66300366300365	
0.254	3.66300366300365	3.66300366300365	
0.2545	3.66300366300365	3.66300366300365	
0.255	3.66300366300365	3.66300366300365	
0.2555	3.66300366300365	3.66300366300365	
0.256	3.66300366300365	3.66300366300365	
0.2565	3.66300366300365	3.66300366300365	
0.257	3.66300366300365	3.66300366300365	
0.2575	3.66300366300365	3.66300366300365	
0.258	3.66300366300365	3.66300366300365	
0.2585	3.66300366300365	3.66300366300365	
0.259	3.66300366300365	3.66300366300365	
0.2595	3.66300366300365	3.66300366300365	
0.26	3.66300366300365	3.66300366300365	
0.2605	3.66300366300365	3.66300366300365	
0.261	3.66300366300365	3.66300366300365	
0.2615	3.66300366300365	3.66300366300365	
0.262	8.54700854700852	3.66300366300365	
0.2625	3.66300366300365	3.66300366300365	
0.263	8.54700854700852	8.54700854700852	
0.2635	3.66300366300365	3.66300366300365	
0.264	3.66300366300365	3.66300366300365	
0.2645	3.66300366300365	3.66300366300365	
0.265	3.66300366300365	3.66300366300365	
0.2655	3.66300366300365	3.66300366300365	
0.266	3.66300366300365	3.66300366300365	
0.2665	3.66300366300365	3.66300366300365	
0.267	3.66300366300365	3.66300366300365	
0.2675	3.66300366300365	3.66300366300365	
0.268	3.66300366300365	3.66300366300365	
0.2685	3.66300366300365	3.66300366300365	
0.269	3.66300366300365	3.66300366300365	
0.2695	3.66300366300365	3.66300366300365	
0.27	3.66300366300365	3.66300366300365	
0.2705	3.66300366300365	3.66300366300365	
0.271	3.66300366300365	3.66300366300365	
0.2715	3.66300366300365	3.66300366300365	
0.272	3.66300366300365	-1.22100122100122	
0.2725	3.66300366300365	-1.22100122100122	
0.273	3.66300366300365	-1.22100122100122	
0.2735	3.66300366300365	-1.22100122100122	
0.274	3.66300366300365	-1.22100122100122	
0.2745	3.66300366300365	-1.22100122100122	
0.275	3.66300366300365	-1.22100122100122	
0.2755	3.66300366300365	3.66300366300365	
0.276	3.66300366300365	3.66300366300365	
0.2765	3.66300366300365	3.66300366300365	
0.277	3.66300366300365	3.66300366300365	
0.2775	3.66300366300365	3.66300366300365	
0.278	3.66300366300365	3.66300366300365	
0.2785	3.66300366300365	3.66300366300365	
0.279	3.66300366300365	3.66300366300365	
0.2795	3.66300366300365	3.66300366300365	
0.28	8.54700854700852	3.66300366300365	
0.2805	8.54700854700852	3.66300366300365	
0.281	3.66300366300365	3.66300366300365	
0.2815	3.66300366300365	3.66300366300365	
0.282	3.66300366300365	8.54700854700852	
0.2825	3.66300366300365	3.66300366300365	
0.283	3.66300366300365	3.66300366300365	
0.2835	3.66300366300365	3.66300366300365	
0.284	3.66300366300365	3.66300366300365	
0.2845	3.66300366300365	3.66300366300365	
0.285	3.66300366300365	3.66300366300365	
0.2855	3.66300366300365	3.66300366300365	
0.286	3.66300366300365	3.66300366300365	
0.2865	3.66300366300365	3.66300366300365	
0.287	3.66300366300365	3.66300366300365	
0.2875	3.66300366300365	-1.22100122100122	
0.288	3.66300366300365	3.66300366300365	
0.2885	3.66300366300365	-1.22100122100122	
0.289	3.66300366300365	3.66300366300365	
0.2895	3.66300366300365	3.66300366300365	
0.29	3.66300366300365	3.66300366300365	
0.2905	3.66300366300365	3.66300366300365	
0.291	3.66300366300365	3.66300366300365	
0.2915	3.66300366300365	3.66300366300365	
0.292	3.66300366300365	3.66300366300365	
0.2925	3.66300366300365	3.66300366300365	
0.293	3.66300366300365	3.66300366300365	
0.2935	3.66300366300365	3.66300366300365	
0.294	3.66300366300365	3.66300366300365	
0.2945	3.66300366300365	3.66300366300365	
0.295	3.66300366300365	3.66300366300365	
0.2955	3.66300366300365	3.66300366300365	
0.296	3.66300366300365	3.66300366300365	
0.2965	3.66300366300365	3.66300366300365	
0.297	3.66300366300365	3.66300366300365	
0.2975	3.66300366300365	3.66300366300365	
0.298	3.66300366300365	3.66300366300365	
0.2985	3.66300366300365	3.66300366300365	
0.299	3.66300366300365	3.66300366300365	
0.2995	3.66300366300365	3.66300366300365	
0.3	3.66300366300365	3.66300366300365	
0.3005	3.66300366300365	3.66300366300365	
0.301	3.66300366300365	3.66300366300365	
0.3015	3.66300366300365	3.66300366300365	
0.302	3.66300366300365	3.66300366300365	
0.3025	3.66300366300365	3.66300366300365	
0.303	3.66300366300365	3.66300366300365	
0.3035	3.66300366300365	3.66300366300365	
0.304	3.66300366300365	3.66300366300365	
0.3045	3.66300366300365	3.66300366300365	
0.305	3.66300366300365	8.54700854700852	
0.3055	3.66300366300365	3.66300366300365	
0.306	3.66300366300365	3.66300366300365	
0.3065	3.66300366300365	3.66300366300365	
0.307	3.66300366300365	3.66300366300365	
0.3075	3.66300366300365	3.66300366300365	
0.308	3.66300366300365	3.66300366300365	
0.3085	3.66300366300365	3.66300366300365	
0.309	3.66300366300365	3.66300366300365	
0.3095	3.66300366300365	3.66300366300365	
0.31	3.66300366300365	3.66300366300365	
0.3105	3.66300366300365	3.66300366300365	
0.311	3.66300366300365	3.66300366300365	
0.3115	3.66300366300365	8.54700854700852	
0.312	3.66300366300365	3.66300366300365	
0.3125	3.66300366300365	3.66300366300365	
0.313	3.66300366300365	3.66300366300365	
0.3135	8.54700854700852	3.66300366300365	
0.314	3.66300366300365	3.66300366300365	
0.3145	3.66300366300365	3.66300366300365	
0.315	3.66300366300365	3.66300366300365	
0.3155	3.66300366300365	3.66300366300365	
0.316	3.66300366300365	3.66300366300365	
0.3165	3.66300366300365	3.66300366300365	
0.317	3.66300366300365	3.66300366300365	
0.3175	3.66300366300365	3.66300366300365	
0.318	3.66300366300365	3.66300366300365	
0.3185	-1.22100122100122	-1.22100122100122	
0.319	-1.22100122100122	-1.22100122100122	
0.3195	-1.22100122100122	-1.22100122100122	
0.32	-1.22100122100122	-1.22100122100122	
0.3205	3.66300366300365	-1.22100122100122	
0.321	3.66300366300365	3.66300366300365	
0.3215	3.66300366300365	3.66300366300365	
0.322	3.66300366300365	3.66300366300365	
0.3225	3.66300366300365	3.66300366300365	
0.323	3.66300366300365	3.66300366300365	
0.3235	3.66300366300365	3.66300366300365	
0.324	3.66300366300365	3.66300366300365	
0.3245	3.66300366300365	3.66300366300365	
0.325	3.66300366300365	3.66300366300365	
0.3255	3.66300366300365	3.66300366300365	
0.326	3.66300366300365	3.66300366300365	
0.3265	3.66300366300365	3.66300366300365	
0.327	3.66300366300365	3.66300366300365	
0.3275	3.66300366300365	3.66300366300365	
0.328	3.66300366300365	3.66300366300365	
0.3285	3.66300366300365	3.66300366300365	
0.329	3.66300366300365	3.66300366300365	
0.3295	3.66300366300365	3.66300366300365	
0.33	3.66300366300365	3.66300366300365	
0.3305	3.66300366300365	3.66300366300365	
0.331	3.66300366300365	3.66300366300365	
0.3315	8.54700854700852	3.66300366300365	
0.332	3.66300366300365	3.66300366300365	
0.3325	3.66300366300365	3.66300366300365	
0.333	8.54700854700852	3.66300366300365	
0.3335	3.66300366300365	3.66300366300365	
0.334	3.66300366300365	3.66300366300365	
0.3345	3.66300366300365	3.66300366300365	
0.335	3.66300366300365	3.66300366300365	
0.3355	3.66300366300365	3.66300366300365	
0.336	3.66300366300365	3.66300366300365	
0.3365	3.66300366300365	3.66300366300365	
0.337	3.66300366300365	3.66300366300365	
0.3375	3.66300366300365	3.66300366300365	
0.338	3.66300366300365	3.66300366300365	
0.3385	3.66300366300365	3.66300366300365	
0.339	3.66300366300365	3.66300366300365	
0.3395	3.66300366300365	3.66300366300365	
0.34	3.66300366300365	3.66300366300365	
0.3405	3.66300366300365	3.66300366300365	
0.341	3.66300366300365	3.66300366300365	
0.3415	3.66300366300365	3.66300366300365	
0.342	3.66300366300365	3.66300366300365	
0.3425	3.66300366300365	3.66300366300365	
0.343	3.66300366300365	3.66300366300365	
0.3435	3.66300366300365	3.66300366300365	
0.344	3.66300366300365	3.66300366300365	
0.3445	3.66300366300365	3.66300366300365	
0.345	3.66300366300365	3.66300366300365	
0.3455	3.66300366300365	3.66300366300365	
0.346	3.66300366300365	3.66300366300365	
0.3465	3.66300366300365	3.66300366300365	
0.347	3.66300366300365	3.66300366300365	
0.3475	3.66300366300365	3.66300366300365	
0.348	3.66300366300365	3.66300366300365	
0.3485	3.66300366300365	3.66300366300365	
0.349	3.66300366300365	3.66300366300365	
0.3495	3.66300366300365	3.66300366300365	
0.35	3.66300366300365	8.54700854700852	
0.3505	3.66300366300365	3.66300366300365	
0.351	3.66300366300365	8.54700854700852	
0.3515	3.66300366300365	3.66300366300365	
0.352	3.66300366300365	3.66300366300365	
0.3525	3.66300366300365	3.66300366300365	
0.353	3.66300366300365	3.66300366300365	
0.3535	3.66300366300365	3.66300366300365	
0.354	3.66300366300365	3.66300366300365	
0.3545	3.66300366300365	3.66300366300365	
0.355	3.66300366300365	3.66300366300365	
0.3555	3.66300366300365	3.66300366300365	
0.356	3.66300366300365	3.66300366300365	
0.3565	3.66300366300365	3.66300366300365	
0.357	3.66300366300365	3.66300366300365	
0.3575	3.66300366300365	3.66300366300365	
0.358	3.66300366300365	3.66300366300365	
0.3585	3.66300366300365	3.66300366300365	
0.359	3.66300366300365	3.66300366300365	
0.3595	3.66300366300365	3.66300366300365	
0.36	3.66300366300365	3.66300366300365	
0.3605	3.66300366300365	3.66300366300365	
0.361	3.66300366300365	3.66300366300365	
0.3615	3.66300366300365	3.66300366300365	
0.362	3.66300366300365	3.66300366300365	
0.3625	3.66300366300365	3.66300366300365	
0.363	3.66300366300365	8.54700854700852	
0.3635	3.66300366300365	3.66300366300365	
0.364	3.66300366300365	3.66300366300365	
0.3645	3.66300366300365	3.66300366300365	
0.365	3.66300366300365	3.66300366300365	
0.3655	3.66300366300365	3.66300366300365	
0.366	3.66300366300365	3.66300366300365	
0.3665	3.66300366300365	3.66300366300365	
0.367	3.66300366300365	3.66300366300365	
0.3675	3.66300366300365	3.66300366300365	
0.368	3.66300366300365	3.66300366300365	
0.3685	3.66300366300365	3.66300366300365	
0.369	3.66300366300365	3.66300366300365	
0.3695	3.66300366300365	3.66300366300365	
0.37	3.66300366300365	3.66300366300365	
0.3705	3.66300366300365	3.66300366300365	
0.371	3.66300366300365	3.66300366300365	
0.3715	3.66300366300365	3.66300366300365	
0.372	3.66300366300365	3.66300366300365	
0.3725	3.66300366300365	-1.22100122100122	
0.373	3.66300366300365	3.66300366300365	
0.3735	-1.22100122100122	3.66300366300365	
0.374	3.66300366300365	3.66300366300365	
0.3745	3.66300366300365	3.66300366300365	
0.375	3.66300366300365	3.66300366300365	
0.3755	3.66300366300365	3.66300366300365	
0.376	3.66300366300365	3.66300366300365	
0.3765	3.66300366300365	3.66300366300365	
0.377	3.66300366300365	3.66300366300365	
0.3775	3.66300366300365	3.66300366300365	
0.378	3.66300366300365	3.66300366300365	
0.3785	3.66300366300365	3.66300366300365	
0.379	3.66300366300365	3.66300366300365	
0.3795	3.66300366300365	3.66300366300365	
0.38	3.66300366300365	3.66300366300365	
0.3805	3.66300366300365	3.66300366300365	
0.381	3.66300366300365	3.66300366300365	
0.3815	3.66300366300365	3.66300366300365	
0.382	3.66300366300365	3.66300366300365	
0.3825	3.66300366300365	3.66300366300365	
0.383	3.66300366300365	8.54700854700852	
0.3835	3.66300366300365	8.54700854700852	
0.384	3.66300366300365	3.66300366300365	
0.3845	3.66300366300365	3.66300366300365	
0.385	3.66300366300365	3.66300366300365	
0.3855	3.66300366300365	3.66300366300365	
0.386	3.66300366300365	3.66300366300365	
0.3865	3.66300366300365	3.66300366300365	
0.387	3.66300366300365	3.66300366300365	
0.3875	3.66300366300365	3.66300366300365	
0.388	3.66300366300365	3.66300366300365	
0.3885	3.66300366300365	3.66300366300365	
0.389	3.66300366300365	3.66300366300365	
0.3895	3.66300366300365	3.66300366300365	
0.39	3.66300366300365	3.66300366300365	
0.3905	3.66300366300365	3.66300366300365	
0.391	3.66300366300365	3.66300366300365	
0.3915	3.66300366300365	3.66300366300365	
0.392	3.66300366300365	3.66300366300365	
0.3925	3.66300366300365	3.66300366300365	
0.393	3.66300366300365	3.66300366300365	
0.3935	3.66300366300365	3.66300366300365	
0.394	3.66300366300365	3.66300366300365	
0.3945	3.66300366300365	3.66300366300365	
0.395	3.66300366300365	3.66300366300365	
0.3955	3.66300366300365	3.66300366300365	
0.396	3.66300366300365	3.66300366300365	
0.3965	3.66300366300365	3.66300366300365	
0.397	3.66300366300365	3.66300366300365	
0.3975	3.66300366300365	3.66300366300365	
0.398	3.66300366300365	3.66300366300365	
0.3985	3.66300366300365	3.66300366300365	
0.399	3.66300366300365	3.66300366300365	
0.3995	3.66300366300365	3.66300366300365	
0.4	3.66300366300365	3.66300366300365	
0.4005	3.66300366300365	3.66300366300365	
0.401	3.66300366300365	3.66300366300365	
0.4015	3.66300366300365	3.66300366300365	
0.402	3.66300366300365	3.66300366300365	
0.4025	3.66300366300365	3.66300366300365	
0.403	3.66300366300365	3.66300366300365	
0.4035	3.66300366300365	3.66300366300365	
0.404	3.66300366300365	3.66300366300365	
0.4045	3.66300366300365	3.66300366300365	
0.405	3.66300366300365	3.66300366300365	
0.4055	3.66300366300365	3.66300366300365	
0.406	3.66300366300365	3.66300366300365	
0.4065	3.66300366300365	3.66300366300365	
0.407	3.66300366300365	3.66300366300365	
0.4075	3.66300366300365	3.66300366300365	
0.408	3.66300366300365	3.66300366300365	
0.4085	3.66300366300365	3.66300366300365	
0.409	3.66300366300365	3.66300366300365	
0.4095	3.66300366300365	3.66300366300365	
0.41	3.66300366300365	3.66300366300365	
0.4105	3.66300366300365	3.66300366300365	
0.411	3.66300366300365	3.66300366300365	
0.4115	3.66300366300365	3.66300366300365	
0.412	3.66300366300365	3.66300366300365	
0.4125	3.66300366300365	3.66300366300365	
0.413	3.66300366300365	3.66300366300365	
0.4135	3.66300366300365	3.66300366300365	
0.414	3.66300366300365	3.66300366300365	
0.4145	3.66300366300365	3.66300366300365	
0.415	3.66300366300365	3.66300366300365	
0.4155	3.66300366300365	3.66300366300365	
0.416	3.66300366300365	3.66300366300365	
0.4165	3.66300366300365	3.66300366300365	
0.417	3.66300366300365	3.66300366300365	
0.4175	3.66300366300365	3.66300366300365	
0.418	3.66300366300365	3.66300366300365	
0.4185	3.66300366300365	3.66300366300365	
0.419	3.66300366300365	3.66300366300365	
0.4195	3.66300366300365	3.66300366300365	
0.42	3.66300366300365	3.66300366300365	
0.4205	3.66300366300365	-1.22100122100122	
0.421	3.66300366300365	3.66300366300365	
0.4215	3.66300366300365	3.66300366300365	
0.422	3.66300366300365	3.66300366300365	
0.4225	3.66300366300365	3.66300366300365	
0.423	3.66300366300365	3.66300366300365	
0.4235	3.66300366300365	3.66300366300365	
0.424	3.66300366300365	3.66300366300365	
0.4245	3.66300366300365	3.66300366300365	
0.425	3.66300366300365	3.66300366300365	
0.4255	3.66300366300365	3.66300366300365	
0.426	3.66300366300365	3.66300366300365	
0.4265	3.66300366300365	3.66300366300365	
0.427	3.66300366300365	3.66300366300365	
0.4275	3.66300366300365	3.66300366300365	
0.428	3.66300366300365	3.66300366300365	
0.4285	3.66300366300365	3.66300366300365	
0.429	3.66300366300365	3.66300366300365	
0.4295	3.66300366300365	3.66300366300365	
0.43	3.66300366300365	3.66300366300365	
0.4305	3.66300366300365	3.66300366300365	
0.431	3.66300366300365	3.66300366300365	
0.4315	3.66300366300365	3.66300366300365	
0.432	3.66300366300365	3.66300366300365	
0.4325	3.66300366300365	3.66300366300365	
0.433	3.66300366300365	-1.22100122100122	
0.4335	3.66300366300365	-1.22100122100122	
0.434	3.66300366300365	3.66300366300365	
0.4345	3.66300366300365	3.66300366300365	
0.435	3.66300366300365	3.66300366300365	
0.4355	3.66300366300365	3.66300366300365	
0.436	3.66300366300365	3.66300366300365	
0.4365	3.66300366300365	3.66300366300365	
0.437	3.66300366300365	3.66300366300365	
0.4375	3.66300366300365	3.66300366300365	
0.438	3.66300366300365	8.54700854700852	
0.4385	3.66300366300365	3.66300366300365	
0.439	3.66300366300365	8.54700854700852	
0.4395	3.66300366300365	8.54700854700852	
0.44	3.66300366300365	8.54700854700852	
0.4405	3.66300366300365	3.66300366300365	
0.441	3.66300366300365	8.54700854700852	
0.4415	3.66300366300365	8.54700854700852	
0.442	3.66300366300365	3.66300366300365	
0.4425	3.66300366300365	3.66300366300365	
0.443	3.66300366300365	8.54700854700852	
0.4435	3.66300366300365	3.66300366300365	
0.444	3.66300366300365	3.66300366300365	
0.4445	3.66300366300365	3.66300366300365	
0.445	3.66300366300365	3.66300366300365	
0.4455	3.66300366300365	-1.22100122100122	
0.446	3.66300366300365	3.66300366300365	
0.4465	3.66300366300365	3.66300366300365	
0.447	3.66300366300365	3.66300366300365	
0.4475	3.66300366300365	3.66300366300365	
0.448	3.66300366300365	3.66300366300365	
0.4485	3.66300366300365	3.66300366300365	
0.449	3.66300366300365	3.66300366300365	
0.4495	3.66300366300365	3.66300366300365	
0.45	3.66300366300365	3.66300366300365	
0.4505	3.66300366300365	3.66300366300365	
0.451	3.66300366300365	-1.22100122100122	
0.4515	3.66300366300365	-1.22100122100122	
0.452	3.66300366300365	-1.22100122100122	
0.4525	3.66300366300365	3.66300366300365	
0.453	3.66300366300365	3.66300366300365	
0.4535	3.66300366300365	3.66300366300365	
0.454	3.66300366300365	3.66300366300365	
0.4545	3.66300366300365	3.66300366300365	
0.455	3.66300366300365	3.66300366300365	
0.4555	3.66300366300365	3.66300366300365	
0.456	3.66300366300365	3.66300366300365	
0.4565	3.66300366300365	3.66300366300365	
0.457	3.66300366300365	3.66300366300365	
0.4575	3.66300366300365	3.66300366300365	
0.458	3.66300366300365	3.66300366300365	
0.4585	3.66300366300365	8.54700854700852	
0.459	3.66300366300365	3.66300366300365	
0.4595	3.66300366300365	3.66300366300365	
0.46	3.66300366300365	8.54700854700852	
0.4605	3.66300366300365	3.66300366300365	
0.461	3.66300366300365	3.66300366300365	
0.4615	3.66300366300365	3.66300366300365	
0.462	3.66300366300365	3.66300366300365	
0.4625	3.66300366300365	3.66300366300365	
0.463	3.66300366300365	3.66300366300365	
0.4635	3.66300366300365	3.66300366300365	
0.464	3.66300366300365	3.66300366300365	
0.4645	3.66300366300365	3.66300366300365	
0.465	3.66300366300365	3.66300366300365	
0.4655	3.66300366300365	3.66300366300365	
0.466	3.66300366300365	3.66300366300365	
0.4665	3.66300366300365	3.66300366300365	
0.467	3.66300366300365	3.66300366300365	
0.4675	3.66300366300365	3.66300366300365	
0.468	3.66300366300365	3.66300366300365	
0.4685	3.66300366300365	8.54700854700852	
0.469	3.66300366300365	8.54700854700852	
0.4695	3.66300366300365	3.66300366300365	
0.47	3.66300366300365	3.66300366300365	
0.4705	3.66300366300365	3.66300366300365	
0.471	3.66300366300365	3.66300366300365	
0.4715	3.66300366300365	3.66300366300365	
0.472	3.66300366300365	3.66300366300365	
0.4725	3.66300366300365	3.66300366300365	
0.473	3.66300366300365	3.66300366300365	
0.4735	3.66300366300365	3.66300366300365	
0.474	3.66300366300365	3.66300366300365	
0.4745	3.66300366300365	3.66300366300365	
0.475	3.66300366300365	3.66300366300365	
0.4755	3.66300366300365	3.66300366300365	
0.476	3.66300366300365	3.66300366300365	
0.4765	3.66300366300365	3.66300366300365	
0.477	3.66300366300365	3.66300366300365	
0.4775	3.66300366300365	3.66300366300365	
0.478	3.66300366300365	3.66300366300365	
0.4785	3.66300366300365	3.66300366300365	
0.479	3.66300366300365	3.66300366300365	
0.4795	3.66300366300365	3.66300366300365	
0.48	3.66300366300365	3.66300366300365	
0.4805	3.66300366300365	3.66300366300365	
0.481	3.66300366300365	3.66300366300365	
0.4815	3.66300366300365	3.66300366300365	
0.482	3.66300366300365	3.66300366300365	
0.4825	3.66300366300365	3.66300366300365	
0.483	3.66300366300365	3.66300366300365	
0.4835	3.66300366300365	3.66300366300365	
0.484	3.66300366300365	3.66300366300365	
0.4845	3.66300366300365	3.66300366300365	
0.485	3.66300366300365	3.66300366300365	
0.4855	3.66300366300365	3.66300366300365	
0.486	3.66300366300365	3.66300366300365	
0.4865	3.66300366300365	3.66300366300365	
0.487	3.66300366300365	3.66300366300365	
0.4875	3.66300366300365	3.66300366300365	
0.488	3.66300366300365	3.66300366300365	
0.4885	3.66300366300365	3.66300366300365	
0.489	3.66300366300365	3.66300366300365	
0.4895	3.66300366300365	3.66300366300365	
0.49	3.66300366300365	3.66300366300365	
0.4905	3.66300366300365	3.66300366300365	
0.491	3.66300366300365	3.66300366300365	
0.4915	3.66300366300365	3.66300366300365	
0.492	3.66300366300365	3.66300366300365	
0.4925	3.66300366300365	3.66300366300365	
0.493	3.66300366300365	3.66300366300365	
0.4935	3.66300366300365	3.66300366300365	
0.494	3.66300366300365	3.66300366300365	
0.4945	3.66300366300365	3.66300366300365	
0.495	3.66300366300365	3.66300366300365	
0.4955	3.66300366300365	3.66300366300365	
0.496	3.66300366300365	3.66300366300365	
0.4965	3.66300366300365	3.66300366300365	
0.497	3.66300366300365	3.66300366300365	
0.4975	3.66300366300365	-1.22100122100122	
0.498	3.66300366300365	3.66300366300365	
0.4985	3.66300366300365	3.66300366300365	
0.499	3.66300366300365	3.66300366300365	
0.4995	3.66300366300365	3.66300366300365	
0.5	3.66300366300365	3.66300366300365	
0.5005	3.66300366300365	3.66300366300365	
0.501	3.66300366300365	3.66300366300365	
0.5015	3.66300366300365	3.66300366300365	
0.502	3.66300366300365	3.66300366300365	
0.5025	3.66300366300365	3.66300366300365	
0.503	3.66300366300365	3.66300366300365	
0.5035	3.66300366300365	3.66300366300365	
0.504	3.66300366300365	3.66300366300365	
0.5045	3.66300366300365	3.66300366300365	
0.505	3.66300366300365	3.66300366300365	
0.5055	3.66300366300365	3.66300366300365	
0.506	3.66300366300365	3.66300366300365	
0.5065	3.66300366300365	3.66300366300365	
0.507	3.66300366300365	3.66300366300365	
0.5075	3.66300366300365	3.66300366300365	
0.508	3.66300366300365	3.66300366300365	
0.5085	3.66300366300365	3.66300366300365	
0.509	3.66300366300365	3.66300366300365	
0.5095	3.66300366300365	3.66300366300365	
0.51	3.66300366300365	3.66300366300365	
0.5105	3.66300366300365	3.66300366300365	
0.511	3.66300366300365	3.66300366300365	
0.5115	3.66300366300365	3.66300366300365	
0.512	3.66300366300365	3.66300366300365	
0.5125	3.66300366300365	3.66300366300365	
0.513	3.66300366300365	3.66300366300365	
0.5135	3.66300366300365	3.66300366300365	
0.514	3.66300366300365	8.54700854700852	
0.5145	3.66300366300365	3.66300366300365	
0.515	3.66300366300365	3.66300366300365	
0.5155	3.66300366300365	3.66300366300365	
0.516	3.66300366300365	3.66300366300365	
0.5165	3.66300366300365	3.66300366300365	
0.517	3.66300366300365	8.54700854700852	
0.5175	3.66300366300365	3.66300366300365	
0.518	3.66300366300365	8.54700854700852	
0.5185	3.66300366300365	3.66300366300365	
0.519	3.66300366300365	3.66300366300365	
0.5195	3.66300366300365	3.66300366300365	
0.52	3.66300366300365	3.66300366300365	
0.5205	3.66300366300365	3.66300366300365	
0.521	3.66300366300365	3.66300366300365	
0.5215	3.66300366300365	3.66300366300365	
0.522	3.66300366300365	3.66300366300365	
0.5225	3.66300366300365	3.66300366300365	
0.523	3.66300366300365	3.66300366300365	
0.5235	3.66300366300365	3.66300366300365	
0.524	3.66300366300365	3.66300366300365	
0.5245	3.66300366300365	-1.22100122100122	
0.525	3.66300366300365	-1.22100122100122	
0.5255	-1.22100122100122	-1.22100122100122	
0.526	3.66300366300365	-1.22100122100122	
0.5265	3.66300366300365	3.66300366300365	
0.527	-1.22100122100122	-1.22100122100122	
0.5275	-1.22100122100122	3.66300366300365	
0.528	3.66300366300365	3.66300366300365	
0.5285	3.66300366300365	3.66300366300365	
0.529	3.66300366300365	3.66300366300365	
0.5295	3.66300366300365	3.66300366300365	
0.53	3.66300366300365	3.66300366300365	
0.5305	3.66300366300365	3.66300366300365	
0.531	3.66300366300365	3.66300366300365	
0.5315	3.66300366300365	3.66300366300365	
0.532	3.66300366300365	3.66300366300365	
0.5325	3.66300366300365	3.66300366300365	
0.533	3.66300366300365	3.66300366300365	
0.5335	3.66300366300365	3.66300366300365	
0.534	3.66300366300365	3.66300366300365	
0.5345	3.66300366300365	3.66300366300365	
0.535	3.66300366300365	3.66300366300365	
0.5355	3.66300366300365	3.66300366300365	
0.536	3.66300366300365	8.54700854700852	
0.5365	3.66300366300365	3.66300366300365	
0.537	3.66300366300365	3.66300366300365	
0.5375	3.66300366300365	3.66300366300365	
0.538	3.66300366300365	3.66300366300365	
0.5385	3.66300366300365	3.66300366300365	
0.539	3.66300366300365	3.66300366300365	
0.5395	3.66300366300365	3.66300366300365	
0.54	3.66300366300365	3.66300366300365	
0.5405	3.66300366300365	3.66300366300365	
0.541	3.66300366300365	3.66300366300365	
0.5415	3.66300366300365	3.66300366300365	
0.542	3.66300366300365	3.66300366300365	
0.5425	3.66300366300365	3.66300366300365	
0.543	3.66300366300365	3.66300366300365	
0.5435	3.66300366300365	3.66300366300365	
0.544	3.66300366300365	3.66300366300365	
0.5445	3.66300366300365	3.66300366300365	
0.545	3.66300366300365	3.66300366300365	
0.5455	3.66300366300365	3.66300366300365	
0.546	3.66300366300365	3.66300366300365	
0.5465	8.54700854700852	3.66300366300365	
0.547	3.66300366300365	3.66300366300365	
0.5475	3.66300366300365	3.66300366300365	
0.548	3.66300366300365	3.66300366300365	
0.5485	3.66300366300365	3.66300366300365	
0.549	3.66300366300365	3.66300366300365	
0.5495	3.66300366300365	3.66300366300365	
0.55	3.66300366300365	3.66300366300365	
0.5505	3.66300366300365	3.66300366300365	
0.551	3.66300366300365	3.66300366300365	
0.5515	3.66300366300365	3.66300366300365	
0.552	3.66300366300365	3.66300366300365	
0.5525	3.66300366300365	3.66300366300365	
0.553	3.66300366300365	3.66300366300365	
0.5535	3.66300366300365	3.66300366300365	
0.554	3.66300366300365	3.66300366300365	
0.5545	3.66300366300365	3.66300366300365	
0.555	3.66300366300365	3.66300366300365	
0.5555	3.66300366300365	3.66300366300365	
0.556	3.66300366300365	3.66300366300365	
0.5565	3.66300366300365	3.66300366300365	
0.557	3.66300366300365	3.66300366300365	
0.5575	3.66300366300365	3.66300366300365	
0.558	3.66300366300365	3.66300366300365	
0.5585	3.66300366300365	3.66300366300365	
0.559	3.66300366300365	3.66300366300365	
0.5595	3.66300366300365	3.66300366300365	
0.56	3.66300366300365	3.66300366300365	
0.5605	3.66300366300365	3.66300366300365	
0.561	3.66300366300365	3.66300366300365	
0.5615	3.66300366300365	3.66300366300365	
0.562	3.66300366300365	3.66300366300365	
0.5625	3.66300366300365	3.66300366300365	
0.563	3.66300366300365	3.66300366300365	
0.5635	3.66300366300365	3.66300366300365	
0.564	3.66300366300365	3.66300366300365	
0.5645	3.66300366300365	3.66300366300365	
0.565	3.66300366300365	3.66300366300365	
0.5655	3.66300366300365	3.66300366300365	
0.566	3.66300366300365	3.66300366300365	
0.5665	3.66300366300365	3.66300366300365	
0.567	3.66300366300365	3.66300366300365	
0.5675	3.66300366300365	3.66300366300365	
0.568	3.66300366300365	3.66300366300365	
0.5685	3.66300366300365	3.66300366300365	
0.569	3.66300366300365	3.66300366300365	
0.5695	3.66300366300365	3.66300366300365	
0.57	3.66300366300365	3.66300366300365	
0.5705	3.66300366300365	3.66300366300365	
0.571	3.66300366300365	3.66300366300365	
0.5715	8.54700854700852	3.66300366300365	
0.572	8.54700854700852	8.54700854700852	
0.5725	8.54700854700852	3.66300366300365	
0.573	8.54700854700852	8.54700854700852	
0.5735	8.54700854700852	3.66300366300365	
0.574	3.66300366300365	3.66300366300365	
0.5745	3.66300366300365	3.66300366300365	
0.575	3.66300366300365	3.66300366300365	
0.5755	3.66300366300365	3.66300366300365	
0.576	3.66300366300365	3.66300366300365	
0.5765	3.66300366300365	3.66300366300365	
0.577	3.66300366300365	3.66300366300365	
0.5775	3.66300366300365	3.66300366300365	
0.578	3.66300366300365	3.66300366300365	
0.5785	3.66300366300365	3.66300366300365	
0.579	3.66300366300365	3.66300366300365	
0.5795	3.66300366300365	3.66300366300365	
0.58	3.66300366300365	3.66300366300365	
0.5805	3.66300366300365	3.66300366300365	
0.581	3.66300366300365	3.66300366300365	
0.5815	3.66300366300365	3.66300366300365	
0.582	3.66300366300365	3.66300366300365	
0.5825	-1.22100122100122	3.66300366300365	
0.583	-6.10500610500608	3.66300366300365	
0.5835	-1.22100122100122	3.66300366300365	
0.584	-1.22100122100122	-1.22100122100122	
0.5845	-1.22100122100122	3.66300366300365	
0.585	3.66300366300365	3.66300366300365	
0.5855	3.66300366300365	3.66300366300365	
0.586	3.66300366300365	3.66300366300365	
0.5865	3.66300366300365	3.66300366300365	
0.587	8.54700854700852	3.66300366300365	
0.5875	3.66300366300365	3.66300366300365	
0.588	3.66300366300365	8.54700854700852	
0.5885	3.66300366300365	3.66300366300365	
0.589	8.54700854700852	3.66300366300365	
0.5895	3.66300366300365	3.66300366300365	
0.59	3.66300366300365	3.66300366300365	
0.5905	3.66300366300365	3.66300366300365	
0.591	3.66300366300365	3.66300366300365	
0.5915	3.66300366300365	3.66300366300365	
0.592	3.66300366300365	3.66300366300365	
0.5925	3.66300366300365	3.66300366300365	
0.593	3.66300366300365	3.66300366300365	
0.5935	3.66300366300365	3.66300366300365	
0.594	3.66300366300365	3.66300366300365	
0.5945	3.66300366300365	3.66300366300365	
0.595	3.66300366300365	3.66300366300365	
0.5955	3.66300366300365	3.66300366300365	
0.596	3.66300366300365	3.66300366300365	
0.5965	3.66300366300365	3.66300366300365	
0.597	3.66300366300365	3.66300366300365	
0.5975	3.66300366300365	3.66300366300365	
0.598	3.66300366300365	3.66300366300365	
0.5985	3.66300366300365	3.66300366300365	
0.599	3.66300366300365	3.66300366300365	
0.5995	3.66300366300365	3.66300366300365	
0.6	3.66300366300365	8.54700854700852	
0.6005	8.54700854700852	3.66300366300365	
0.601	3.66300366300365	3.66300366300365	
0.6015	3.66300366300365	3.66300366300365	
0.602	3.66300366300365	3.66300366300365	
0.6025	3.66300366300365	3.66300366300365	
0.603	3.66300366300365	3.66300366300365	
0.6035	3.66300366300365	3.66300366300365	
0.604	3.66300366300365	3.66300366300365	
0.6045	3.66300366300365	3.66300366300365	
0.605	3.66300366300365	8.54700854700852	
0.6055	3.66300366300365	3.66300366300365	
0.606	3.66300366300365	3.66300366300365	
0.6065	3.66300366300365	3.66300366300365	
0.607	3.66300366300365	3.66300366300365	
0.6075	3.66300366300365	3.66300366300365	
0.608	3.66300366300365	3.66300366300365	
0.6085	3.66300366300365	3.66300366300365	
0.609	3.66300366300365	3.66300366300365	
0.6095	3.66300366300365	3.66300366300365	
0.61	3.66300366300365	3.66300366300365	
0.6105	3.66300366300365	3.66300366300365	
0.611	3.66300366300365	3.66300366300365	
0.6115	3.66300366300365	3.66300366300365	
0.612	3.66300366300365	3.66300366300365	
0.6125	3.66300366300365	3.66300366300365	
0.613	3.66300366300365	3.66300366300365	
0.6135	3.66300366300365	3.66300366300365	
0.614	3.66300366300365	3.66300366300365	
0.6145	3.66300366300365	3.66300366300365	
0.615	3.66300366300365	3.66300366300365	
0.6155	3.66300366300365	3.66300366300365	
0.616	3.66300366300365	3.66300366300365	
0.6165	3.66300366300365	3.66300366300365	
0.617	3.66300366300365	3.66300366300365	
0.6175	3.66300366300365	3.66300366300365	
0.618	3.66300366300365	-1.22100122100122	
0.6185	3.66300366300365	-1.22100122100122	
0.619	3.66300366300365	3.66300366300365	
0.6195	3.66300366300365	3.66300366300365	
0.62	8.54700854700852	3.66300366300365	
0.6205	8.54700854700852	3.66300366300365	
0.621	3.66300366300365	3.66300366300365	
0.6215	3.66300366300365	3.66300366300365	
0.622	3.66300366300365	3.66300366300365	
0.6225	3.66300366300365	3.66300366300365	
0.623	3.66300366300365	3.66300366300365	
0.6235	3.66300366300365	3.66300366300365	
0.624	3.66300366300365	8.54700854700852	
0.6245	3.66300366300365	3.66300366300365	
0.625	3.66300366300365	3.66300366300365	
0.6255	3.66300366300365	3.66300366300365	
0.626	3.66300366300365	3.66300366300365	
0.6265	3.66300366300365	3.66300366300365	
0.627	3.66300366300365	3.66300366300365	
0.6275	3.66300366300365	3.66300366300365	
0.628	3.66300366300365	3.66300366300365	
0.6285	3.66300366300365	3.66300366300365	
0.629	-1.22100122100122	3.66300366300365	
0.6295	-1.22100122100122	3.66300366300365	
0.63	-1.22100122100122	3.66300366300365	
0.6305	-1.22100122100122	3.66300366300365	
0.631	-1.22100122100122	-1.22100122100122	
0.6315	-1.22100122100122	3.66300366300365	
0.632	3.66300366300365	3.66300366300365	
0.6325	3.66300366300365	3.66300366300365	
0.633	3.66300366300365	3.66300366300365	
0.6335	3.66300366300365	3.66300366300365	
0.634	8.54700854700852	3.66300366300365	
0.6345	3.66300366300365	3.66300366300365	
0.635	3.66300366300365	3.66300366300365	
0.6355	3.66300366300365	3.66300366300365	
0.636	3.66300366300365	3.66300366300365	
0.6365	3.66300366300365	3.66300366300365	
0.637	3.66300366300365	8.54700854700852	
0.6375	3.66300366300365	3.66300366300365	
0.638	8.54700854700852	8.54700854700852	
0.6385	8.54700854700852	3.66300366300365	
0.639	8.54700854700852	3.66300366300365	
0.6395	8.54700854700852	3.66300366300365	
0.64	8.54700854700852	3.66300366300365	
0.6405	3.66300366300365	3.66300366300365	
0.641	3.66300366300365	3.66300366300365	
0.6415	3.66300366300365	3.66300366300365	
0.642	3.66300366300365	3.66300366300365	
0.6425	-1.22100122100122	3.66300366300365	
0.643	-1.22100122100122	3.66300366300365	
0.6435	-1.22100122100122	-1.22100122100122	
0.644	-1.22100122100122	-1.22100122100122	
0.6445	-1.22100122100122	3.66300366300365	
0.645	-1.22100122100122	3.66300366300365	
0.6455	-1.22100122100122	3.66300366300365	
0.646	3.66300366300365	3.66300366300365	
0.6465	8.54700854700852	3.66300366300365	
0.647	8.54700854700852	3.66300366300365	
0.6475	13.4310134310134	3.66300366300365	
0.648	8.54700854700852	3.66300366300365	
0.6485	8.54700854700852	3.66300366300365	
0.649	8.54700854700852	3.66300366300365	
0.6495	3.66300366300365	3.66300366300365	
0.65	3.66300366300365	3.66300366300365	
0.6505	-1.22100122100122	3.66300366300365	
0.651	-1.22100122100122	3.66300366300365	
0.6515	3.66300366300365	3.66300366300365	
0.652	3.66300366300365	3.66300366300365	
0.6525	3.66300366300365	3.66300366300365	
0.653	8.54700854700852	3.66300366300365	
0.6535	3.66300366300365	3.66300366300365	
0.654	3.66300366300365	3.66300366300365	
0.6545	3.66300366300365	3.66300366300365	
0.655	3.66300366300365	3.66300366300365	
0.6555	3.66300366300365	3.66300366300365	
0.656	3.66300366300365	-1.22100122100122	
0.6565	-1.22100122100122	-1.22100122100122	
0.657	-1.22100122100122	3.66300366300365	
0.6575	-1.22100122100122	3.66300366300365	
0.658	-1.22100122100122	3.66300366300365	
0.6585	-1.22100122100122	3.66300366300365	
0.659	3.66300366300365	3.66300366300365	
0.6595	-1.22100122100122	3.66300366300365	
0.66	3.66300366300365	3.66300366300365	
0.6605	8.54700854700852	3.66300366300365	
0.661	8.54700854700852	8.54700854700852	
0.6615	13.4310134310134	8.54700854700852	
0.662	13.4310134310134	8.54700854700852	
0.6625	13.4310134310134	8.54700854700852	
0.663	13.4310134310134	8.54700854700852	
0.6635	13.4310134310134	8.54700854700852	
0.664	8.54700854700852	8.54700854700852	
0.6645	8.54700854700852	3.66300366300365	
0.665	8.54700854700852	3.66300366300365	
0.6655	3.66300366300365	3.66300366300365	
0.666	3.66300366300365	3.66300366300365	
0.6665	3.66300366300365	3.66300366300365	
0.667	3.66300366300365	3.66300366300365	
0.6675	3.66300366300365	-1.22100122100122	
0.668	3.66300366300365	3.66300366300365	
0.6685	3.66300366300365	3.66300366300365	
0.669	3.66300366300365	3.66300366300365	
0.6695	3.66300366300365	-1.22100122100122	
0.67	-1.22100122100122	3.66300366300365	
0.6705	-1.22100122100122	3.66300366300365	
0.671	-6.10500610500608	-1.22100122100122	
0.6715	-6.10500610500608	-1.22100122100122	
0.672	-6.10500610500608	-1.22100122100122	
0.6725	-6.10500610500608	3.66300366300365	
0.673	3.66300366300365	3.66300366300365	
0.6735	3.66300366300365	3.66300366300365	
0.674	8.54700854700852	8.54700854700852	
0.6745	13.4310134310134	8.54700854700852	
0.675	13.4310134310134	13.4310134310134	
0.6755	13.4310134310134	13.4310134310134	
0.676	8.54700854700852	13.4310134310134	
0.6765	8.54700854700852	8.54700854700852	
0.677	8.54700854700852	3.66300366300365	
0.6775	8.54700854700852	3.66300366300365	
0.678	3.66300366300365	3.66300366300365	
0.6785	3.66300366300365	3.66300366300365	
0.679	3.66300366300365	3.66300366300365	
0.6795	3.66300366300365	3.66300366300365	
0.68	3.66300366300365	3.66300366300365	
0.6805	3.66300366300365	-1.22100122100122	
0.681	3.66300366300365	3.66300366300365	
0.6815	3.66300366300365	3.66300366300365	
0.682	3.66300366300365	3.66300366300365	
0.6825	3.66300366300365	3.66300366300365	
0.683	3.66300366300365	3.66300366300365	
0.6835	-1.22100122100122	3.66300366300365	
0.684	3.66300366300365	3.66300366300365	
0.6845	3.66300366300365	3.66300366300365	
0.685	3.66300366300365	3.66300366300365	
0.6855	3.66300366300365	3.66300366300365	
0.686	3.66300366300365	3.66300366300365	
0.6865	3.66300366300365	3.66300366300365	
0.687	8.54700854700852	3.66300366300365	
0.6875	3.66300366300365	3.66300366300365	
0.688	3.66300366300365	3.66300366300365	
0.6885	3.66300366300365	3.66300366300365	
0.689	3.66300366300365	3.66300366300365	
0.6895	3.66300366300365	3.66300366300365	
0.69	3.66300366300365	3.66300366300365	
0.6905	3.66300366300365	3.66300366300365	
0.691	3.66300366300365	3.66300366300365	
0.6915	3.66300366300365	3.66300366300365	
0.692	8.54700854700852	3.66300366300365	
0.6925	3.66300366300365	3.66300366300365	
0.693	3.66300366300365	3.66300366300365	
0.6935	3.66300366300365	-1.22100122100122	
0.694	3.66300366300365	3.66300366300365	
0.6945	3.66300366300365	3.66300366300365	
0.695	3.66300366300365	-1.22100122100122	
0.6955	3.66300366300365	-1.22100122100122	
0.696	3.66300366300365	3.66300366300365	
0.6965	3.66300366300365	3.66300366300365	
0.697	8.54700854700852	3.66300366300365	
0.6975	8.54700854700852	3.66300366300365	
0.698	3.66300366300365	3.66300366300365	
0.6985	3.66300366300365	3.66300366300365	
0.699	3.66300366300365	3.66300366300365	
0.6995	-1.22100122100122	3.66300366300365	
0.7	3.66300366300365	3.66300366300365	
0.7005	3.66300366300365	3.66300366300365	
0.701	3.66300366300365	3.66300366300365	
0.7015	3.66300366300365	3.66300366300365	
0.702	3.66300366300365	3.66300366300365	
0.7025	3.66300366300365	3.66300366300365	
0.703	3.66300366300365	3.66300366300365	
0.7035	3.66300366300365	3.66300366300365	
0.704	3.66300366300365	3.66300366300365	
0.7045	3.66300366300365	3.66300366300365	
0.705	-1.22100122100122	3.66300366300365	
0.7055	-1.22100122100122	3.66300366300365	
0.706	-1.22100122100122	3.66300366300365	
0.7065	3.66300366300365	8.54700854700852	
0.707	3.66300366300365	3.66300366300365	
0.7075	8.54700854700852	8.54700854700852	
0.708	8.54700854700852	8.54700854700852	
0.7085	13.4310134310134	8.54700854700852	
0.709	13.4310134310134	8.54700854700852	
0.7095	8.54700854700852	8.54700854700852	
0.71	8.54700854700852	8.54700854700852	
0.7105	8.54700854700852	3.66300366300365	
0.711	8.54700854700852	3.66300366300365	
0.7115	8.54700854700852	3.66300366300365	
0.712	3.66300366300365	3.66300366300365	
0.7125	3.66300366300365	3.66300366300365	
0.713	3.66300366300365	3.66300366300365	
0.7135	3.66300366300365	-1.22100122100122	
0.714	3.66300366300365	3.66300366300365	
0.7145	3.66300366300365	3.66300366300365	
0.715	3.66300366300365	3.66300366300365	
0.7155	3.66300366300365	3.66300366300365	
0.716	3.66300366300365	-1.22100122100122	
0.7165	3.66300366300365	-1.22100122100122	
0.717	3.66300366300365	3.66300366300365	
0.7175	3.66300366300365	-1.22100122100122	
0.718	3.66300366300365	3.66300366300365	
0.7185	3.66300366300365	3.66300366300365	
0.719	3.66300366300365	3.66300366300365	
0.7195	3.66300366300365	3.66300366300365	
0.72	3.66300366300365	3.66300366300365	
0.7205	3.66300366300365	3.66300366300365	
0.721	3.66300366300365	3.66300366300365	
0.7215	3.66300366300365	3.66300366300365	
0.722	3.66300366300365	3.66300366300365	
0.7225	3.66300366300365	3.66300366300365	
0.723	3.66300366300365	3.66300366300365	
0.7235	3.66300366300365	3.66300366300365	
0.724	3.66300366300365	3.66300366300365	
0.7245	3.66300366300365	3.66300366300365	
0.725	3.66300366300365	3.66300366300365	
0.7255	3.66300366300365	3.66300366300365	
0.726	3.66300366300365	3.66300366300365	
0.7265	3.66300366300365	3.66300366300365	
0.727	3.66300366300365	3.66300366300365	
0.7275	-1.22100122100122	3.66300366300365	
0.728	-1.22100122100122	3.66300366300365	
0.7285	-6.10500610500608	3.66300366300365	
0.729	-1.22100122100122	3.66300366300365	
0.7295	3.66300366300365	-1.22100122100122	
0.73	-1.22100122100122	-1.22100122100122	
0.7305	-1.22100122100122	-1.22100122100122	
0.731	-6.10500610500608	-1.22100122100122	
0.7315	-10.989010989011	-1.22100122100122	
0.732	-10.989010989011	-1.22100122100122	
0.7325	-6.10500610500608	-1.22100122100122	
0.733	-6.10500610500608	3.66300366300365	
0.7335	-6.10500610500608	3.66300366300365	
0.734	3.66300366300365	3.66300366300365	
0.7345	3.66300366300365	8.54700854700852	
0.735	8.54700854700852	8.54700854700852	
0.7355	13.4310134310134	8.54700854700852	
0.736	13.4310134310134	8.54700854700852	
0.7365	13.4310134310134	8.54700854700852	
0.737	13.4310134310134	13.4310134310134	
0.7375	8.54700854700852	8.54700854700852	
0.738	8.54700854700852	3.66300366300365	
0.7385	8.54700854700852	3.66300366300365	
0.739	8.54700854700852	3.66300366300365	
0.7395	8.54700854700852	3.66300366300365	
0.74	8.54700854700852	8.54700854700852	
0.7405	8.54700854700852	3.66300366300365	
0.741	13.4310134310134	8.54700854700852	
0.7415	13.4310134310134	8.54700854700852	
0.742	8.54700854700852	8.54700854700852	
0.7425	8.54700854700852	3.66300366300365	
0.743	8.54700854700852	3.66300366300365	
0.7435	3.66300366300365	3.66300366300365	
0.744	3.66300366300365	3.66300366300365	
0.7445	3.66300366300365	3.66300366300365	
0.745	3.66300366300365	3.66300366300365	
0.7455	3.66300366300365	3.66300366300365	
0.746	3.66300366300365	3.66300366300365	
0.7465	3.66300366300365	3.66300366300365	
0.747	3.66300366300365	3.66300366300365	
0.7475	3.66300366300365	3.66300366300365	
0.748	3.66300366300365	3.66300366300365	
0.7485	3.66300366300365	3.66300366300365	
0.749	3.66300366300365	3.66300366300365	
0.7495	3.66300366300365	3.66300366300365	
0.75	3.66300366300365	3.66300366300365	
0.7505	-1.22100122100122	3.66300366300365	
0.751	-1.22100122100122	3.66300366300365	
0.7515	3.66300366300365	3.66300366300365	
0.752	-1.22100122100122	3.66300366300365	
0.7525	-1.22100122100122	-1.22100122100122	
0.753	-1.22100122100122	3.66300366300365	
0.7535	-1.22100122100122	3.66300366300365	
0.754	-1.22100122100122	3.66300366300365	
0.7545	-1.22100122100122	-1.22100122100122	
0.755	3.66300366300365	3.66300366300365	
0.7555	3.66300366300365	3.66300366300365	
0.756	3.66300366300365	3.66300366300365	
0.7565	3.66300366300365	3.66300366300365	
0.757	8.54700854700852	3.66300366300365	
0.7575	8.54700854700852	3.66300366300365	
0.758	8.54700854700852	3.66300366300365	
0.7585	8.54700854700852	3.66300366300365	
0.759	8.54700854700852	8.54700854700852	
0.7595	8.54700854700852	8.54700854700852	
0.76	8.54700854700852	8.54700854700852	
0.7605	8.54700854700852	8.54700854700852	
0.761	3.66300366300365	3.66300366300365	
0.7615	3.66300366300365	3.66300366300365	
0.762	3.66300366300365	3.66300366300365	
0.7625	3.66300366300365	3.66300366300365	
0.763	3.66300366300365	3.66300366300365	
0.7635	3.66300366300365	3.66300366300365	
0.764	3.66300366300365	3.66300366300365	
0.7645	3.66300366300365	3.66300366300365	
0.765	3.66300366300365	3.66300366300365	
0.7655	3.66300366300365	3.66300366300365	
0.766	3.66300366300365	3.66300366300365	
0.7665	3.66300366300365	-1.22100122100122	
0.767	3.66300366300365	3.66300366300365	
0.7675	3.66300366300365	-1.22100122100122	
0.768	3.66300366300365	-1.22100122100122	
0.7685	3.66300366300365	-1.22100122100122	
0.769	3.66300366300365	3.66300366300365	
0.7695	3.66300366300365	-1.22100122100122	
0.77	3.66300366300365	3.66300366300365	
0.7705	3.66300366300365	3.66300366300365	
0.771	3.66300366300365	3.66300366300365	
0.7715	3.66300366300365	3.66300366300365	
0.772	3.66300366300365	3.66300366300365	
0.7725	3.66300366300365	3.66300366300365	
0.773	3.66300366300365	3.66300366300365	
0.7735	3.66300366300365	3.66300366300365	
0.774	8.54700854700852	3.66300366300365	
0.7745	8.54700854700852	3.66300366300365	
0.775	8.54700854700852	3.66300366300365	
0.7755	8.54700854700852	3.66300366300365	
0.776	8.54700854700852	3.66300366300365	
0.7765	3.66300366300365	3.66300366300365	
0.777	3.66300366300365	3.66300366300365	
0.7775	3.66300366300365	3.66300366300365	
0.778	3.66300366300365	3.66300366300365	
0.7785	-1.22100122100122	3.66300366300365	
0.779	-6.10500610500608	-1.22100122100122	
0.7795	-10.989010989011	-1.22100122100122	
0.78	-6.10500610500608	3.66300366300365	
0.7805	-6.10500610500608	3.66300366300365	
0.781	3.66300366300365	3.66300366300365	
0.7815	-1.22100122100122	3.66300366300365	
0.782	-6.10500610500608	3.66300366300365	
0.7825	-10.989010989011	-1.22100122100122	
0.783	-15.8730158730158	-1.22100122100122	
0.7835	-10.989010989011	-1.22100122100122	
0.784	-10.989010989011	-1.22100122100122	
0.7845	-1.22100122100122	-1.22100122100122	
0.785	-1.22100122100122	3.66300366300365	
0.7855	-1.22100122100122	3.66300366300365	
0.786	3.66300366300365	3.66300366300365	
0.7865	3.66300366300365	3.66300366300365	
0.787	8.54700854700852	8.54700854700852	
0.7875	13.4310134310134	8.54700854700852	
0.788	13.4310134310134	8.54700854700852	
0.7885	13.4310134310134	8.54700854700852	
0.789	13.4310134310134	13.4310134310134	
0.7895	13.4310134310134	13.4310134310134	
0.79	18.3150183150183	13.4310134310134	
0.7905	13.4310134310134	13.4310134310134	
0.791	13.4310134310134	13.4310134310134	
0.7915	8.54700854700852	8.54700854700852	
0.792	3.66300366300365	8.54700854700852	
0.7925	3.66300366300365	3.66300366300365	
0.793	3.66300366300365	8.54700854700852	
0.7935	3.66300366300365	3.66300366300365	
0.794	8.54700854700852	3.66300366300365	
0.7945	8.54700854700852	3.66300366300365	
0.795	8.54700854700852	3.66300366300365	
0.7955	8.54700854700852	3.66300366300365	
0.796	3.66300366300365	3.66300366300365	
0.7965	3.66300366300365	3.66300366300365	
0.797	8.54700854700852	3.66300366300365	
0.7975	8.54700854700852	3.66300366300365	
0.798	3.66300366300365	3.66300366300365	
0.7985	8.54700854700852	3.66300366300365	
0.799	3.66300366300365	3.66300366300365	
0.7995	8.54700854700852	3.66300366300365	
0.8	8.54700854700852	3.66300366300365	
0.8005	8.54700854700852	3.66300366300365	
0.801	3.66300366300365	3.66300366300365	
0.8015	3.66300366300365	3.66300366300365	
0.802	3.66300366300365	3.66300366300365	
0.8025	3.66300366300365	3.66300366300365	
0.803	3.66300366300365	3.66300366300365	
0.8035	3.66300366300365	3.66300366300365	
0.804	3.66300366300365	3.66300366300365	
0.8045	3.66300366300365	3.66300366300365	
0.805	3.66300366300365	3.66300366300365	
0.8055	3.66300366300365	3.66300366300365	
0.806	-1.22100122100122	3.66300366300365	
0.8065	-10.989010989011	-1.22100122100122	
0.807	-15.8730158730158	-1.22100122100122	
0.8075	-15.8730158730158	-6.10500610500608	
0.808	-20.7570207570207	-6.10500610500608	
0.8085	-20.7570207570207	-6.10500610500608	
0.809	-20.7570207570207	-1.22100122100122	
0.8095	-15.8730158730158	-1.22100122100122	
0.81	-6.10500610500608	3.66300366300365	
0.8105	3.66300366300365	3.66300366300365	
0.811	13.4310134310134	3.66300366300365	
0.8115	18.3150183150183	8.54700854700852	
0.812	18.3150183150183	8.54700854700852	
0.8125	18.3150183150183	8.54700854700852	
0.813	18.3150183150183	8.54700854700852	
0.8135	18.3150183150183	8.54700854700852	
0.814	13.4310134310134	8.54700854700852	
0.8145	8.54700854700852	8.54700854700852	
0.815	8.54700854700852	3.66300366300365	
0.8155	3.66300366300365	3.66300366300365	
0.816	3.66300366300365	3.66300366300365	
0.8165	3.66300366300365	3.66300366300365	
0.817	3.66300366300365	3.66300366300365	
0.8175	3.66300366300365	3.66300366300365	
0.818	3.66300366300365	3.66300366300365	
0.8185	8.54700854700852	3.66300366300365	
0.819	8.54700854700852	3.66300366300365	
0.8195	8.54700854700852	3.66300366300365	
0.82	3.66300366300365	3.66300366300365	
0.8205	3.66300366300365	3.66300366300365	
0.821	3.66300366300365	3.66300366300365	
0.8215	3.66300366300365	3.66300366300365	
0.822	3.66300366300365	3.66300366300365	
0.8225	3.66300366300365	3.66300366300365	
0.823	3.66300366300365	3.66300366300365	
0.8235	3.66300366300365	3.66300366300365	
0.824	3.66300366300365	3.66300366300365	
0.8245	8.54700854700852	3.66300366300365	
0.825	3.66300366300365	3.66300366300365	
0.8255	3.66300366300365	3.66300366300365	
0.826	3.66300366300365	3.66300366300365	
0.8265	3.66300366300365	3.66300366300365	
0.827	3.66300366300365	3.66300366300365	
0.8275	3.66300366300365	3.66300366300365	
0.828	3.66300366300365	3.66300366300365	
0.8285	3.66300366300365	3.66300366300365	
0.829	-1.22100122100122	3.66300366300365	
0.8295	-1.22100122100122	3.66300366300365	
0.83	3.66300366300365	3.66300366300365	
0.8305	3.66300366300365	3.66300366300365	
0.831	3.66300366300365	3.66300366300365	
0.8315	3.66300366300365	3.66300366300365	
0.832	3.66300366300365	3.66300366300365	
0.8325	3.66300366300365	3.66300366300365	
0.833	3.66300366300365	3.66300366300365	
0.8335	3.66300366300365	3.66300366300365	
0.834	8.54700854700852	3.66300366300365	
0.8345	8.54700854700852	3.66300366300365	
0.835	3.66300366300365	3.66300366300365	
0.8355	3.66300366300365	3.66300366300365	
0.836	3.66300366300365	3.66300366300365	
0.8365	3.66300366300365	3.66300366300365	
0.837	3.66300366300365	3.66300366300365	
0.8375	3.66300366300365	3.66300366300365	
0.838	3.66300366300365	3.66300366300365	
0.8385	-1.22100122100122	3.66300366300365	
0.839	-1.22100122100122	-1.22100122100122	
0.8395	-1.22100122100122	-1.22100122100122	
0.84	-1.22100122100122	-1.22100122100122	
0.8405	-6.10500610500608	-1.22100122100122	
0.841	-6.10500610500608	-1.22100122100122	
0.8415	-10.989010989011	-1.22100122100122	
0.842	-10.989010989011	-1.22100122100122	
0.8425	-15.8730158730158	-1.22100122100122	
0.843	-15.8730158730158	3.66300366300365	
0.8435	-10.989010989011	3.66300366300365	
0.844	-10.989010989011	3.66300366300365	
0.8445	-1.22100122100122	3.66300366300365	
0.845	3.66300366300365	8.54700854700852	
0.8455	3.66300366300365	8.54700854700852	
0.846	8.54700854700852	8.54700854700852	
0.8465	8.54700854700852	8.54700854700852	
0.847	8.54700854700852	8.54700854700852	
0.8475	3.66300366300365	8.54700854700852	
0.848	8.54700854700852	13.4310134310134	
0.8485	13.4310134310134	8.54700854700852	
0.849	13.4310134310134	3.66300366300365	
0.8495	13.4310134310134	8.54700854700852	
0.85	18.3150183150183	3.66300366300365	
0.8505	13.4310134310134	8.54700854700852	
0.851	13.4310134310134	8.54700854700852	
0.8515	13.4310134310134	3.66300366300365	
0.852	13.4310134310134	3.66300366300365	
0.8525	8.54700854700852	3.66300366300365	
0.853	13.4310134310134	3.66300366300365	
0.8535	13.4310134310134	3.66300366300365	
0.854	13.4310134310134	3.66300366300365	
0.8545	8.54700854700852	3.66300366300365	
0.855	8.54700854700852	3.66300366300365	
0.8555	8.54700854700852	3.66300366300365	
0.856	8.54700854700852	3.66300366300365	
0.8565	3.66300366300365	3.66300366300365	
0.857	3.66300366300365	3.66300366300365	
0.8575	3.66300366300365	3.66300366300365	
0.858	3.66300366300365	3.66300366300365	
0.8585	3.66300366300365	3.66300366300365	
0.859	3.66300366300365	3.66300366300365	
0.8595	3.66300366300365	3.66300366300365	
0.86	3.66300366300365	3.66300366300365	
0.8605	3.66300366300365	3.66300366300365	
0.861	3.66300366300365	3.66300366300365	
0.8615	3.66300366300365	3.66300366300365	
0.862	-1.22100122100122	3.66300366300365	
0.8625	-1.22100122100122	3.66300366300365	
0.863	-1.22100122100122	3.66300366300365	
0.8635	-1.22100122100122	3.66300366300365	
0.864	-1.22100122100122	3.66300366300365	
0.8645	-1.22100122100122	3.66300366300365	
0.865	-1.22100122100122	3.66300366300365	
0.8655	-6.10500610500608	-1.22100122100122	
0.866	-6.10500610500608	-1.22100122100122	
0.8665	-6.10500610500608	-6.10500610500608	
0.867	-6.10500610500608	-6.10500610500608	
0.8675	-1.22100122100122	-1.22100122100122	
0.868	-1.22100122100122	-1.22100122100122	
0.8685	3.66300366300365	3.66300366300365	
0.869	3.66300366300365	3.66300366300365	
0.8695	3.66300366300365	3.66300366300365	
0.87	3.66300366300365	3.66300366300365	
0.8705	3.66300366300365	3.66300366300365	
0.871	3.66300366300365	3.66300366300365	
0.8715	3.66300366300365	-1.22100122100122	
0.872	3.66300366300365	3.66300366300365	
0.8725	3.66300366300365	3.66300366300365	
0.873	13.4310134310134	3.66300366300365	
0.8735	13.4310134310134	8.54700854700852	
0.874	13.4310134310134	8.54700854700852	
0.8745	13.4310134310134	8.54700854700852	
0.875	13.4310134310134	8.54700854700852	
0.8755	13.4310134310134	8.54700854700852	
0.876	13.4310134310134	8.54700854700852	
0.8765	13.4310134310134	8.54700854700852	
0.877	8.54700854700852	13.4310134310134	
0.8775	13.4310134310134	8.54700854700852	
0.878	13.4310134310134	8.54700854700852	
0.8785	3.66300366300365	3.66300366300365	
0.879	3.66300366300365	3.66300366300365	
0.8795	3.66300366300365	3.66300366300365	
0.88	3.66300366300365	3.66300366300365	
0.8805	3.66300366300365	3.66300366300365	
0.881	3.66300366300365	3.66300366300365	
0.8815	8.54700854700852	3.66300366300365	
0.882	8.54700854700852	3.66300366300365	
0.8825	3.66300366300365	3.66300366300365	
0.883	3.66300366300365	3.66300366300365	
0.8835	3.66300366300365	3.66300366300365	
0.884	8.54700854700852	3.66300366300365	
0.8845	8.54700854700852	3.66300366300365	
0.885	8.54700854700852	3.66300366300365	
0.8855	8.54700854700852	3.66300366300365	
0.886	8.54700854700852	3.66300366300365	
0.8865	8.54700854700852	3.66300366300365	
0.887	8.54700854700852	3.66300366300365	
0.8875	3.66300366300365	3.66300366300365	
0.888	3.66300366300365	3.66300366300365	
0.8885	3.66300366300365	3.66300366300365	
0.889	-1.22100122100122	3.66300366300365	
0.8895	-6.10500610500608	-1.22100122100122	
0.89	-10.989010989011	-1.22100122100122	
0.8905	-10.989010989011	-1.22100122100122	
0.891	-6.10500610500608	-1.22100122100122	
0.8915	-6.10500610500608	-1.22100122100122	
0.892	-6.10500610500608	-1.22100122100122	
0.8925	-6.10500610500608	-1.22100122100122	
0.893	-1.22100122100122	3.66300366300365	
0.8935	-1.22100122100122	3.66300366300365	
0.894	-6.10500610500608	3.66300366300365	
0.8945	-1.22100122100122	3.66300366300365	
0.895	-1.22100122100122	3.66300366300365	
0.8955	-1.22100122100122	3.66300366300365	
0.896	-10.989010989011	3.66300366300365	
0.8965	-15.8730158730158	3.66300366300365	
0.897	-15.8730158730158	3.66300366300365	
0.8975	-10.989010989011	3.66300366300365	
0.898	-6.10500610500608	-1.22100122100122	
0.8985	-1.22100122100122	-1.22100122100122	
0.899	3.66300366300365	-1.22100122100122	
0.8995	3.66300366300365	3.66300366300365	
0.9	13.4310134310134	8.54700854700852	
0.9005	18.3150183150183	13.4310134310134	
0.901	23.1990231990231	13.4310134310134	
0.9015	23.1990231990231	13.4310134310134	
0.902	23.1990231990231	13.4310134310134	
0.9025	23.1990231990231	13.4310134310134	
0.903	18.3150183150183	13.4310134310134	
0.9035	18.3150183150183	13.4310134310134	
0.904	13.4310134310134	8.54700854700852	
0.9045	13.4310134310134	8.54700854700852	
0.905	13.4310134310134	3.66300366300365	
0.9055	8.54700854700852	3.66300366300365	
0.906	8.54700854700852	3.66300366300365	
0.9065	3.66300366300365	3.66300366300365	
0.907	3.66300366300365	3.66300366300365	
0.9075	3.66300366300365	3.66300366300365	
0.908	3.66300366300365	-1.22100122100122	
0.9085	3.66300366300365	3.66300366300365	
0.909	3.66300366300365	-1.22100122100122	
0.9095	3.66300366300365	3.66300366300365	
0.91	3.66300366300365	3.66300366300365	
0.9105	3.66300366300365	3.66300366300365	
0.911	3.66300366300365	3.66300366300365	
0.9115	3.66300366300365	3.66300366300365	
0.912	3.66300366300365	3.66300366300365	
0.9125	3.66300366300365	3.66300366300365	
0.913	8.54700854700852	3.66300366300365	
0.9135	3.66300366300365	3.66300366300365	
0.914	3.66300366300365	3.66300366300365	
0.9145	3.66300366300365	3.66300366300365	
0.915	-1.22100122100122	3.66300366300365	
0.9155	-1.22100122100122	-1.22100122100122	
0.916	-1.22100122100122	-1.22100122100122	
0.9165	-1.22100122100122	-1.22100122100122	
0.917	-1.22100122100122	3.66300366300365	
0.9175	-1.22100122100122	3.66300366300365	
0.918	-1.22100122100122	3.66300366300365	
0.9185	-1.22100122100122	3.66300366300365	
0.919	-1.22100122100122	3.66300366300365	
0.9195	3.66300366300365	3.66300366300365	
0.92	3.66300366300365	3.66300366300365	
0.9205	-1.22100122100122	3.66300366300365	
0.921	-1.22100122100122	3.66300366300365	
0.9215	-6.10500610500608	3.66300366300365	
0.922	-1.22100122100122	3.66300366300365	
0.9225	-6.10500610500608	3.66300366300365	
0.923	-1.22100122100122	3.66300366300365	
0.9235	-1.22100122100122	3.66300366300365	
0.924	-1.22100122100122	3.66300366300365	
0.9245	-1.22100122100122	-1.22100122100122	
0.925	-1.22100122100122	-1.22100122100122	
0.9255	3.66300366300365	-1.22100122100122	
0.926	3.66300366300365	3.66300366300365	
0.9265	8.54700854700852	3.66300366300365	
0.927	13.4310134310134	3.66300366300365	
0.9275	13.4310134310134	3.66300366300365	
0.928	13.4310134310134	3.66300366300365	
0.9285	13.4310134310134	3.66300366300365	
0.929	8.54700854700852	3.66300366300365	
0.9295	13.4310134310134	3.66300366300365	
0.93	13.4310134310134	3.66300366300365	
0.9305	8.54700854700852	3.66300366300365	
0.931	3.66300366300365	3.66300366300365	
0.9315	3.66300366300365	3.66300366300365	
0.932	3.66300366300365	3.66300366300365	
0.9325	3.66300366300365	8.54700854700852	
0.933	3.66300366300365	8.54700854700852	
0.9335	3.66300366300365	3.66300366300365	
0.934	3.66300366300365	3.66300366300365	
0.9345	3.66300366300365	3.66300366300365	
0.935	3.66300366300365	3.66300366300365	
0.9355	3.66300366300365	3.66300366300365	
0.936	3.66300366300365	8.54700854700852	
0.9365	3.66300366300365	8.54700854700852	
0.937	3.66300366300365	8.54700854700852	
0.9375	8.54700854700852	8.54700854700852	
0.938	8.54700854700852	8.54700854700852	
0.9385	13.4310134310134	8.54700854700852	
0.939	8.54700854700852	3.66300366300365	
0.9395	3.66300366300365	3.66300366300365	
0.94	3.66300366300365	3.66300366300365	
0.9405	3.66300366300365	3.66300366300365	
0.941	3.66300366300365	3.66300366300365	
0.9415	3.66300366300365	3.66300366300365	
0.942	3.66300366300365	3.66300366300365	
0.9425	3.66300366300365	3.66300366300365	
0.943	3.66300366300365	3.66300366300365	
0.9435	3.66300366300365	3.66300366300365	
0.944	3.66300366300365	3.66300366300365	
0.9445	3.66300366300365	3.66300366300365	
0.945	3.66300366300365	3.66300366300365	
0.9455	3.66300366300365	3.66300366300365	
0.946	-1.22100122100122	3.66300366300365	
0.9465	-6.10500610500608	3.66300366300365	
0.947	-6.10500610500608	-1.22100122100122	
0.9475	-10.989010989011	-1.22100122100122	
0.948	-6.10500610500608	-1.22100122100122	
0.9485	-1.22100122100122	3.66300366300365	
0.949	-1.22100122100122	3.66300366300365	
0.9495	-1.22100122100122	3.66300366300365	
0.95	-1.22100122100122	3.66300366300365	
0.9505	3.66300366300365	3.66300366300365	
0.951	3.66300366300365	3.66300366300365	
0.9515	8.54700854700852	8.54700854700852	
0.952	13.4310134310134	8.54700854700852	
0.9525	13.4310134310134	13.4310134310134	
0.953	13.4310134310134	13.4310134310134	
0.9535	13.4310134310134	13.4310134310134	
0.954	8.54700854700852	8.54700854700852	
0.9545	3.66300366300365	3.66300366300365	
0.955	3.66300366300365	3.66300366300365	
0.9555	-6.10500610500608	-1.22100122100122	
0.956	-6.10500610500608	-1.22100122100122	
0.9565	-1.22100122100122	-1.22100122100122	
0.957	3.66300366300365	-1.22100122100122	
0.9575	3.66300366300365	-1.22100122100122	
0.958	3.66300366300365	3.66300366300365	
0.9585	3.66300366300365	-1.22100122100122	
0.959	3.66300366300365	-1.22100122100122	
0.9595	-1.22100122100122	3.66300366300365	
0.96	-1.22100122100122	3.66300366300365	
0.9605	3.66300366300365	3.66300366300365	
0.961	3.66300366300365	3.66300366300365	
0.9615	3.66300366300365	3.66300366300365	
0.962	3.66300366300365	3.66300366300365	
0.9625	3.66300366300365	3.66300366300365	
0.963	3.66300366300365	3.66300366300365	
0.9635	8.54700854700852	3.66300366300365	
0.964	8.54700854700852	3.66300366300365	
0.9645	8.54700854700852	3.66300366300365	
0.965	8.54700854700852	3.66300366300365	
0.9655	8.54700854700852	3.66300366300365	
0.966	13.4310134310134	8.54700854700852	
0.9665	13.4310134310134	3.66300366300365	
0.967	13.4310134310134	3.66300366300365	
0.9675	8.54700854700852	3.66300366300365	
0.968	13.4310134310134	3.66300366300365	
0.9685	8.54700854700852	8.54700854700852	
0.969	13.4310134310134	3.66300366300365	
0.9695	13.4310134310134	3.66300366300365	
0.97	8.54700854700852	3.66300366300365	
0.9705	8.54700854700852	3.66300366300365	
0.971	3.66300366300365	3.66300366300365	
0.9715	3.66300366300365	3.66300366300365	
0.972	3.66300366300365	3.66300366300365	
0.9725	8.54700854700852	3.66300366300365	
0.973	3.66300366300365	3.66300366300365	
0.9735	3.66300366300365	3.66300366300365	
0.974	3.66300366300365	3.66300366300365	
0.9745	3.66300366300365	3.66300366300365	
0.975	-1.22100122100122	3.66300366300365	
0.9755	-1.22100122100122	3.66300366300365	
0.976	-6.10500610500608	-1.22100122100122	
0.9765	-10.989010989011	3.66300366300365	
0.977	-6.10500610500608	3.66300366300365	
0.9775	-1.22100122100122	3.66300366300365	
0.978	-1.22100122100122	3.66300366300365	
0.9785	-1.22100122100122	3.66300366300365	
0.979	-1.22100122100122	3.66300366300365	
0.9795	-1.22100122100122	-1.22100122100122	
0.98	-6.10500610500608	-1.22100122100122	
0.9805	-6.10500610500608	3.66300366300365	
0.981	-1.22100122100122	-1.22100122100122	
0.9815	-1.22100122100122	3.66300366300365	
0.982	3.66300366300365	3.66300366300365	
0.9825	3.66300366300365	3.66300366300365	
0.983	8.54700854700852	3.66300366300365	
0.9835	8.54700854700852	3.66300366300365	
0.984	8.54700854700852	3.66300366300365	
0.9845	8.54700854700852	3.66300366300365	
0.985	13.4310134310134	3.66300366300365	
0.9855	13.4310134310134	3.66300366300365	
0.986	13.4310134310134	3.66300366300365	
0.9865	8.54700854700852	3.66300366300365	
0.987	8.54700854700852	3.66300366300365	
0.9875	3.66300366300365	3.66300366300365	
0.988	3.66300366300365	3.66300366300365	
0.9885	3.66300366300365	3.66300366300365	
0.989	3.66300366300365	3.66300366300365	
0.9895	3.66300366300365	3.66300366300365	
0.99	3.66300366300365	3.66300366300365	
0.9905	3.66300366300365	3.66300366300365	
0.991	3.66300366300365	3.66300366300365	
0.9915	3.66300366300365	3.66300366300365	
0.992	3.66300366300365	3.66300366300365	
0.9925	8.54700854700852	3.66300366300365	
0.993	3.66300366300365	8.54700854700852	
0.9935	3.66300366300365	3.66300366300365	
0.994	8.54700854700852	3.66300366300365	
0.9945	3.66300366300365	3.66300366300365	
0.995	3.66300366300365	3.66300366300365	
0.9955	3.66300366300365	3.66300366300365	
0.996	3.66300366300365	3.66300366300365	
0.9965	3.66300366300365	3.66300366300365	
0.997	3.66300366300365	3.66300366300365	
0.9975	3.66300366300365	3.66300366300365	
0.998	3.66300366300365	3.66300366300365	
0.9985	3.66300366300365	-1.22100122100122	
0.999	3.66300366300365	-1.22100122100122	
0.9995	3.66300366300365	-1.22100122100122	
1	3.66300366300365	-1.22100122100122	
1.0005	-1.22100122100122	-1.22100122100122	
1.001	-1.22100122100122	-1.22100122100122	
1.0015	-1.22100122100122	-1.22100122100122	
1.002	3.66300366300365	-1.22100122100122	
1.0025	3.66300366300365	-1.22100122100122	
1.003	3.66300366300365	3.66300366300365	
1.0035	-1.22100122100122	3.66300366300365	
1.004	3.66300366300365	-1.22100122100122	
1.0045	-1.22100122100122	3.66300366300365	
1.005	3.66300366300365	3.66300366300365	
1.0055	3.66300366300365	3.66300366300365	
1.006	3.66300366300365	3.66300366300365	
1.0065	3.66300366300365	3.66300366300365	
1.007	8.54700854700852	3.66300366300365	
1.0075	8.54700854700852	3.66300366300365	
1.008	8.54700854700852	8.54700854700852	
1.0085	8.54700854700852	8.54700854700852	
1.009	3.66300366300365	8.54700854700852	
1.0095	3.66300366300365	8.54700854700852	
1.01	3.66300366300365	8.54700854700852	
1.0105	3.66300366300365	3.66300366300365	
1.011	-1.22100122100122	3.66300366300365	
1.0115	-1.22100122100122	3.66300366300365	
1.012	3.66300366300365	3.66300366300365	
1.0125	3.66300366300365	3.66300366300365	
1.013	3.66300366300365	3.66300366300365	
1.0135	8.54700854700852	8.54700854700852	
1.014	13.4310134310134	8.54700854700852	
1.0145	13.4310134310134	8.54700854700852	
1.015	13.4310134310134	3.66300366300365	
1.0155	13.4310134310134	3.66300366300365	
1.016	8.54700854700852	3.66300366300365	
1.0165	8.54700854700852	3.66300366300365	
1.017	8.54700854700852	3.66300366300365	
1.0175	8.54700854700852	8.54700854700852	
1.018	3.66300366300365	8.54700854700852	
1.0185	3.66300366300365	3.66300366300365	
1.019	3.66300366300365	3.66300366300365	
1.0195	3.66300366300365	3.66300366300365	
1.02	3.66300366300365	3.66300366300365	
1.0205	3.66300366300365	3.66300366300365	
1.021	3.66300366300365	3.66300366300365	
1.0215	3.66300366300365	3.66300366300365	
1.022	3.66300366300365	3.66300366300365	
1.0225	3.66300366300365	3.66300366300365	
1.023	3.66300366300365	3.66300366300365	
1.0235	3.66300366300365	3.66300366300365	
1.024	3.66300366300365	3.66300366300365	
1.0245	3.66300366300365	3.66300366300365	
1.025	3.66300366300365	3.66300366300365	
1.0255	3.66300366300365	3.66300366300365	
1.026	3.66300366300365	3.66300366300365	
1.0265	3.66300366300365	3.66300366300365	
1.027	3.66300366300365	3.66300366300365	
1.0275	8.54700854700852	3.66300366300365	
1.028	8.54700854700852	3.66300366300365	
1.0285	8.54700854700852	3.66300366300365	
1.029	8.54700854700852	3.66300366300365	
1.0295	8.54700854700852	3.66300366300365	
1.03	3.66300366300365	-1.22100122100122	
1.0305	3.66300366300365	3.66300366300365	
1.031	3.66300366300365	3.66300366300365	
1.0315	3.66300366300365	-1.22100122100122	
1.032	3.66300366300365	3.66300366300365	
1.0325	-1.22100122100122	-1.22100122100122	
1.033	-1.22100122100122	-1.22100122100122	
1.0335	-1.22100122100122	-1.22100122100122	
1.034	-1.22100122100122	-1.22100122100122	
1.0345	-1.22100122100122	-1.22100122100122	
1.035	-1.22100122100122	-1.22100122100122	
1.0355	-10.989010989011	-1.22100122100122	
1.036	-15.8730158730158	-1.22100122100122	
1.0365	-15.8730158730158	-6.10500610500608	
1.037	-10.989010989011	-1.22100122100122	
1.0375	-6.10500610500608	3.66300366300365	
1.038	-6.10500610500608	3.66300366300365	
1.0385	-10.989010989011	3.66300366300365	
1.039	-10.989010989011	3.66300366300365	
1.0395	-6.10500610500608	3.66300366300365	
1.04	3.66300366300365	8.54700854700852	
1.0405	13.4310134310134	8.54700854700852	
1.041	13.4310134310134	13.4310134310134	
1.0415	18.3150183150183	13.4310134310134	
1.042	18.3150183150183	13.4310134310134	
1.0425	18.3150183150183	13.4310134310134	
1.043	18.3150183150183	13.4310134310134	
1.0435	18.3150183150183	13.4310134310134	
1.044	23.1990231990231	13.4310134310134	
1.0445	18.3150183150183	13.4310134310134	
1.045	18.3150183150183	13.4310134310134	
1.0455	18.3150183150183	8.54700854700852	
1.046	13.4310134310134	8.54700854700852	
1.0465	13.4310134310134	3.66300366300365	
1.047	13.4310134310134	3.66300366300365	
1.0475	13.4310134310134	3.66300366300365	
1.048	8.54700854700852	3.66300366300365	
1.0485	8.54700854700852	-1.22100122100122	
1.049	8.54700854700852	3.66300366300365	
1.0495	8.54700854700852	-1.22100122100122	
1.05	3.66300366300365	-1.22100122100122	
1.0505	3.66300366300365	-1.22100122100122	
1.051	3.66300366300365	3.66300366300365	
1.0515	-1.22100122100122	3.66300366300365	
1.052	-1.22100122100122	3.66300366300365	
1.0525	-1.22100122100122	-1.22100122100122	
1.053	-6.10500610500608	-1.22100122100122	
1.0535	-15.8730158730158	-6.10500610500608	
1.054	-15.8730158730158	-6.10500610500608	
1.0545	-15.8730158730158	-10.989010989011	
1.055	-15.8730158730158	-6.10500610500608	
1.0555	-15.8730158730158	-1.22100122100122	
1.056	-20.7570207570207	-1.22100122100122	
1.0565	-15.8730158730158	-1.22100122100122	
1.057	-15.8730158730158	-1.22100122100122	
1.0575	-10.989010989011	-1.22100122100122	
1.058	-10.989010989011	-1.22100122100122	
1.0585	-10.989010989011	-6.10500610500608	
1.059	-10.989010989011	-6.10500610500608	
1.0595	-10.989010989011	-6.10500610500608	
1.06	-6.10500610500608	-1.22100122100122	
1.0605	3.66300366300365	3.66300366300365	
1.061	13.4310134310134	8.54700854700852	
1.0615	23.1990231990231	13.4310134310134	
1.062	23.1990231990231	13.4310134310134	
1.0625	28.083028083028	18.3150183150183	
1.063	28.083028083028	18.3150183150183	
1.0635	28.083028083028	18.3150183150183	
1.064	23.1990231990231	13.4310134310134	
1.0645	18.3150183150183	13.4310134310134	
1.065	13.4310134310134	13.4310134310134	
1.0655	8.54700854700852	13.4310134310134	
1.066	8.54700854700852	13.4310134310134	
1.0665	8.54700854700852	8.54700854700852	
1.067	8.54700854700852	8.54700854700852	
1.0675	8.54700854700852	3.66300366300365	
1.068	3.66300366300365	8.54700854700852	
1.0685	3.66300366300365	3.66300366300365	
1.069	3.66300366300365	3.66300366300365	
1.0695	3.66300366300365	3.66300366300365	
1.07	3.66300366300365	3.66300366300365	
1.0705	3.66300366300365	3.66300366300365	
1.071	3.66300366300365	3.66300366300365	
1.0715	3.66300366300365	3.66300366300365	
1.072	3.66300366300365	3.66300366300365	
1.0725	3.66300366300365	3.66300366300365	
1.073	3.66300366300365	3.66300366300365	
1.0735	3.66300366300365	3.66300366300365	
1.074	3.66300366300365	3.66300366300365	
1.0745	3.66300366300365	3.66300366300365	
1.075	3.66300366300365	3.66300366300365	
1.0755	3.66300366300365	3.66300366300365	
1.076	3.66300366300365	3.66300366300365	
1.0765	3.66300366300365	3.66300366300365	
1.077	3.66300366300365	3.66300366300365	
1.0775	3.66300366300365	3.66300366300365	
1.078	3.66300366300365	3.66300366300365	
1.0785	3.66300366300365	3.66300366300365	
1.079	-1.22100122100122	3.66300366300365	
1.0795	3.66300366300365	3.66300366300365	
1.08	3.66300366300365	3.66300366300365	
1.0805	3.66300366300365	3.66300366300365	
1.081	3.66300366300365	3.66300366300365	
1.0815	3.66300366300365	3.66300366300365	
1.082	3.66300366300365	-1.22100122100122	
1.0825	3.66300366300365	-1.22100122100122	
1.083	3.66300366300365	-1.22100122100122	
1.0835	3.66300366300365	3.66300366300365	
1.084	3.66300366300365	3.66300366300365	
1.0845	3.66300366300365	3.66300366300365	
1.085	3.66300366300365	3.66300366300365	
1.0855	3.66300366300365	3.66300366300365	
1.086	3.66300366300365	3.66300366300365	
1.0865	3.66300366300365	3.66300366300365	
1.087	3.66300366300365	3.66300366300365	
1.0875	3.66300366300365	3.66300366300365	
1.088	3.66300366300365	3.66300366300365	
1.0885	3.66300366300365	3.66300366300365	
1.089	3.66300366300365	3.66300366300365	
1.0895	3.66300366300365	3.66300366300365	
1.09	3.66300366300365	3.66300366300365	
1.0905	3.66300366300365	3.66300366300365	
1.091	3.66300366300365	3.66300366300365	
1.0915	3.66300366300365	3.66300366300365	
1.092	3.66300366300365	3.66300366300365	
1.0925	3.66300366300365	3.66300366300365	
1.093	3.66300366300365	3.66300366300365	
1.0935	3.66300366300365	3.66300366300365	
1.094	3.66300366300365	3.66300366300365	
1.0945	3.66300366300365	3.66300366300365	
1.095	3.66300366300365	3.66300366300365	
1.0955	3.66300366300365	3.66300366300365	
1.096	3.66300366300365	3.66300366300365	
1.0965	3.66300366300365	3.66300366300365	
1.097	3.66300366300365	3.66300366300365	
1.0975	3.66300366300365	3.66300366300365	
1.098	3.66300366300365	3.66300366300365	
1.0985	3.66300366300365	3.66300366300365	
1.099	3.66300366300365	3.66300366300365	
1.0995	3.66300366300365	3.66300366300365	
1.1	3.66300366300365	3.66300366300365	
1.1005	3.66300366300365	3.66300366300365	
1.101	-1.22100122100122	3.66300366300365	
1.1015	-1.22100122100122	3.66300366300365	
1.102	-1.22100122100122	3.66300366300365	
1.1025	3.66300366300365	3.66300366300365	
1.103	3.66300366300365	3.66300366300365	
1.1035	-1.22100122100122	3.66300366300365	
1.104	-1.22100122100122	3.66300366300365	
1.1045	-1.22100122100122	-1.22100122100122	
1.105	-1.22100122100122	3.66300366300365	
1.1055	-1.22100122100122	3.66300366300365	
1.106	3.66300366300365	3.66300366300365	
1.1065	3.66300366300365	3.66300366300365	
1.107	3.66300366300365	3.66300366300365	
1.1075	3.66300366300365	3.66300366300365	
1.108	8.54700854700852	8.54700854700852	
1.1085	8.54700854700852	8.54700854700852	
1.109	13.4310134310134	8.54700854700852	
1.1095	13.4310134310134	8.54700854700852	
1.11	13.4310134310134	8.54700854700852	
1.1105	8.54700854700852	3.66300366300365	
1.111	3.66300366300365	3.66300366300365	
1.1115	3.66300366300365	3.66300366300365	
1.112	3.66300366300365	3.66300366300365	
1.1125	3.66300366300365	3.66300366300365	
1.113	3.66300366300365	3.66300366300365	
1.1135	3.66300366300365	3.66300366300365	
1.114	3.66300366300365	3.66300366300365	
1.1145	3.66300366300365	3.66300366300365	
1.115	3.66300366300365	3.66300366300365	
1.1155	3.66300366300365	3.66300366300365	
1.116	3.66300366300365	3.66300366300365	
1.1165	3.66300366300365	3.66300366300365	
1.117	3.66300366300365	3.66300366300365	
1.1175	3.66300366300365	3.66300366300365	
1.118	3.66300366300365	3.66300366300365	
1.1185	3.66300366300365	3.66300366300365	
1.119	3.66300366300365	3.66300366300365	
1.1195	3.66300366300365	3.66300366300365	
1.12	3.66300366300365	3.66300366300365	
1.1205	3.66300366300365	3.66300366300365	
1.121	3.66300366300365	3.66300366300365	
1.1215	3.66300366300365	-1.22100122100122	
1.122	3.66300366300365	-1.22100122100122	
1.1225	-1.22100122100122	-1.22100122100122	
1.123	-1.22100122100122	3.66300366300365	
1.1235	3.66300366300365	3.66300366300365	
1.124	3.66300366300365	3.66300366300365	
1.1245	3.66300366300365	3.66300366300365	
1.125	3.66300366300365	3.66300366300365	
1.1255	-1.22100122100122	3.66300366300365	
1.126	-1.22100122100122	3.66300366300365	
1.1265	-1.22100122100122	3.66300366300365	
1.127	-1.22100122100122	3.66300366300365	
1.1275	3.66300366300365	3.66300366300365	
1.128	3.66300366300365	3.66300366300365	
1.1285	3.66300366300365	3.66300366300365	
1.129	8.54700854700852	8.54700854700852	
1.1295	8.54700854700852	3.66300366300365	
1.13	3.66300366300365	3.66300366300365	
1.1305	8.54700854700852	3.66300366300365	
1.131	8.54700854700852	8.54700854700852	
1.1315	3.66300366300365	8.54700854700852	
1.132	8.54700854700852	8.54700854700852	
1.1325	3.66300366300365	3.66300366300365	
1.133	8.54700854700852	8.54700854700852	
1.1335	3.66300366300365	3.66300366300365	
1.134	8.54700854700852	3.66300366300365	
1.1345	3.66300366300365	3.66300366300365	
1.135	8.54700854700852	3.66300366300365	
1.1355	8.54700854700852	3.66300366300365	
1.136	3.66300366300365	3.66300366300365	
1.1365	3.66300366300365	3.66300366300365	
1.137	3.66300366300365	3.66300366300365	
1.1375	3.66300366300365	3.66300366300365	
1.138	3.66300366300365	3.66300366300365	
1.1385	3.66300366300365	3.66300366300365	
1.139	3.66300366300365	3.66300366300365	
1.1395	3.66300366300365	3.66300366300365	
1.14	3.66300366300365	3.66300366300365	
1.1405	3.66300366300365	3.66300366300365	
1.141	3.66300366300365	3.66300366300365	
1.1415	3.66300366300365	3.66300366300365	
1.142	3.66300366300365	3.66300366300365	
1.1425	3.66300366300365	3.66300366300365	
1.143	3.66300366300365	3.66300366300365	
1.1435	3.66300366300365	3.66300366300365	
1.144	3.66300366300365	3.66300366300365	
1.1445	3.66300366300365	3.66300366300365	
1.145	3.66300366300365	3.66300366300365	
1.1455	3.66300366300365	3.66300366300365	
1.146	3.66300366300365	3.66300366300365	
1.1465	3.66300366300365	3.66300366300365	
1.147	3.66300366300365	3.66300366300365	
1.1475	3.66300366300365	3.66300366300365	
1.148	3.66300366300365	3.66300366300365	
1.1485	3.66300366300365	3.66300366300365	
1.149	3.66300366300365	3.66300366300365	
1.1495	3.66300366300365	3.66300366300365	
1.15	3.66300366300365	3.66300366300365	
1.1505	3.66300366300365	3.66300366300365	
1.151	3.66300366300365	3.66300366300365	
1.1515	3.66300366300365	3.66300366300365	
1.152	3.66300366300365	3.66300366300365	
1.1525	3.66300366300365	3.66300366300365	
1.153	3.66300366300365	3.66300366300365	
1.1535	3.66300366300365	3.66300366300365	
1.154	3.66300366300365	3.66300366300365	
1.1545	8.54700854700852	3.66300366300365	
1.155	3.66300366300365	3.66300366300365	
1.1555	3.66300366300365	3.66300366300365	
1.156	3.66300366300365	3.66300366300365	
1.1565	3.66300366300365	3.66300366300365	
1.157	3.66300366300365	3.66300366300365	
1.1575	3.66300366300365	3.66300366300365	
1.158	3.66300366300365	3.66300366300365	
1.1585	3.66300366300365	3.66300366300365	
1.159	3.66300366300365	-1.22100122100122	
1.1595	3.66300366300365	-1.22100122100122	
1.16	-1.22100122100122	-1.22100122100122	
1.1605	-1.22100122100122	-1.22100122100122	
1.161	-6.10500610500608	-1.22100122100122	
1.1615	-6.10500610500608	-1.22100122100122	
1.162	-1.22100122100122	3.66300366300365	
1.1625	3.66300366300365	3.66300366300365	
1.163	3.66300366300365	3.66300366300365	
1.1635	8.54700854700852	3.66300366300365	
1.164	8.54700854700852	3.66300366300365	
1.1645	3.66300366300365	3.66300366300365	
1.165	3.66300366300365	3.66300366300365	
1.1655	3.66300366300365	3.66300366300365	
1.166	3.66300366300365	3.66300366300365	
1.1665	3.66300366300365	3.66300366300365	
1.167	8.54700854700852	8.54700854700852	
1.1675	8.54700854700852	8.54700854700852	
1.168	8.54700854700852	13.4310134310134	
1.1685	3.66300366300365	8.54700854700852	
1.169	3.66300366300365	8.54700854700852	
1.1695	8.54700854700852	8.54700854700852	
1.17	3.66300366300365	8.54700854700852	
1.1705	8.54700854700852	3.66300366300365	
1.171	3.66300366300365	3.66300366300365	
1.1715	8.54700854700852	3.66300366300365	
1.172	3.66300366300365	3.66300366300365	
1.1725	3.66300366300365	3.66300366300365	
1.173	3.66300366300365	3.66300366300365	
1.1735	3.66300366300365	-1.22100122100122	
1.174	3.66300366300365	-1.22100122100122	
1.1745	3.66300366300365	-1.22100122100122	
1.175	3.66300366300365	3.66300366300365	
1.1755	3.66300366300365	-1.22100122100122	
1.176	3.66300366300365	3.66300366300365	
1.1765	3.66300366300365	3.66300366300365	
1.177	3.66300366300365	3.66300366300365	
1.1775	3.66300366300365	3.66300366300365	
1.178	3.66300366300365	3.66300366300365	
1.1785	3.66300366300365	3.66300366300365	
1.179	3.66300366300365	3.66300366300365	
1.1795	3.66300366300365	3.66300366300365	
1.18	3.66300366300365	3.66300366300365	
1.1805	3.66300366300365	3.66300366300365	
1.181	3.66300366300365	3.66300366300365	
1.1815	3.66300366300365	3.66300366300365	
1.182	3.66300366300365	3.66300366300365	
1.1825	3.66300366300365	3.66300366300365	
1.183	3.66300366300365	3.66300366300365	
1.1835	3.66300366300365	3.66300366300365	
1.184	3.66300366300365	3.66300366300365	
1.1845	3.66300366300365	3.66300366300365	
1.185	3.66300366300365	3.66300366300365	
1.1855	3.66300366300365	3.66300366300365	
1.186	3.66300366300365	3.66300366300365	
1.1865	3.66300366300365	3.66300366300365	
1.187	3.66300366300365	3.66300366300365	
1.1875	3.66300366300365	3.66300366300365	
1.188	3.66300366300365	3.66300366300365	
1.1885	3.66300366300365	3.66300366300365	
1.189	3.66300366300365	3.66300366300365	
1.1895	3.66300366300365	3.66300366300365	
1.19	3.66300366300365	3.66300366300365	
1.1905	3.66300366300365	-1.22100122100122	
1.191	-1.22100122100122	3.66300366300365	
1.1915	3.66300366300365	3.66300366300365	
1.192	3.66300366300365	3.66300366300365	
1.1925	3.66300366300365	3.66300366300365	
1.193	3.66300366300365	3.66300366300365	
1.1935	3.66300366300365	3.66300366300365	
1.194	3.66300366300365	3.66300366300365	
1.1945	3.66300366300365	3.66300366300365	
1.195	3.66300366300365	3.66300366300365	
1.1955	-1.22100122100122	3.66300366300365	
1.196	-1.22100122100122	3.66300366300365	
1.1965	-1.22100122100122	3.66300366300365	
1.197	3.66300366300365	3.66300366300365	
1.1975	3.66300366300365	3.66300366300365	
1.198	3.66300366300365	8.54700854700852	
1.1985	3.66300366300365	8.54700854700852	
1.199	8.54700854700852	8.54700854700852	
1.1995	8.54700854700852	8.54700854700852	
1.2	8.54700854700852	3.66300366300365	
1.2005	3.66300366300365	3.66300366300365	
1.201	3.66300366300365	3.66300366300365	
1.2015	3.66300366300365	3.66300366300365	
1.202	3.66300366300365	3.66300366300365	
1.2025	3.66300366300365	3.66300366300365	
1.203	8.54700854700852	3.66300366300365	
1.2035	3.66300366300365	3.66300366300365	
1.204	8.54700854700852	3.66300366300365	
1.2045	3.66300366300365	3.66300366300365	
1.205	3.66300366300365	3.66300366300365	
1.2055	3.66300366300365	3.66300366300365	
1.206	3.66300366300365	3.66300366300365	
1.2065	3.66300366300365	3.66300366300365	
1.207	3.66300366300365	3.66300366300365	
1.2075	3.66300366300365	3.66300366300365	
1.208	3.66300366300365	3.66300366300365	
1.2085	3.66300366300365	3.66300366300365	
1.209	3.66300366300365	3.66300366300365	
1.2095	3.66300366300365	3.66300366300365	
1.21	3.66300366300365	8.54700854700852	
1.2105	3.66300366300365	3.66300366300365	
1.211	3.66300366300365	3.66300366300365	
1.2115	3.66300366300365	3.66300366300365	
1.212	3.66300366300365	3.66300366300365	
1.2125	-1.22100122100122	3.66300366300365	
1.213	3.66300366300365	3.66300366300365	
1.2135	3.66300366300365	3.66300366300365	
1.214	3.66300366300365	3.66300366300365	
1.2145	-1.22100122100122	3.66300366300365	
1.215	-1.22100122100122	3.66300366300365	
1.2155	-1.22100122100122	3.66300366300365	
1.216	-1.22100122100122	3.66300366300365	
1.2165	-6.10500610500608	-1.22100122100122	
1.217	-6.10500610500608	3.66300366300365	
1.2175	-1.22100122100122	-1.22100122100122	
1.218	-1.22100122100122	-1.22100122100122	
1.2185	-1.22100122100122	-1.22100122100122	
1.219	-1.22100122100122	-1.22100122100122	
1.2195	-1.22100122100122	-1.22100122100122	
1.22	-1.22100122100122	-1.22100122100122	
1.2205	-1.22100122100122	-1.22100122100122	
1.221	-1.22100122100122	3.66300366300365	
1.2215	3.66300366300365	3.66300366300365	
1.222	8.54700854700852	3.66300366300365	
1.2225	13.4310134310134	3.66300366300365	
1.223	18.3150183150183	8.54700854700852	
1.2235	18.3150183150183	8.54700854700852	
1.224	13.4310134310134	8.54700854700852	
1.2245	13.4310134310134	8.54700854700852	
1.225	13.4310134310134	13.4310134310134	
1.2255	8.54700854700852	8.54700854700852	
1.226	8.54700854700852	8.54700854700852	
1.2265	8.54700854700852	8.54700854700852	
1.227	3.66300366300365	8.54700854700852	
1.2275	3.66300366300365	3.66300366300365	
1.228	3.66300366300365	3.66300366300365	
1.2285	3.66300366300365	3.66300366300365	
1.229	3.66300366300365	3.66300366300365	
1.2295	3.66300366300365	3.66300366300365	
1.23	3.66300366300365	3.66300366300365	
1.2305	3.66300366300365	3.66300366300365	
1.231	3.66300366300365	3.66300366300365	
1.2315	3.66300366300365	3.66300366300365	
1.232	3.66300366300365	3.66300366300365	
1.2325	3.66300366300365	3.66300366300365	
1.233	3.66300366300365	3.66300366300365	
1.2335	3.66300366300365	3.66300366300365	
1.234	3.66300366300365	3.66300366300365	
1.2345	3.66300366300365	-1.22100122100122	
1.235	3.66300366300365	-1.22100122100122	
1.2355	3.66300366300365	-1.22100122100122	
1.236	3.66300366300365	-1.22100122100122	
1.2365	3.66300366300365	3.66300366300365	
1.237	3.66300366300365	3.66300366300365	
1.2375	3.66300366300365	3.66300366300365	
1.238	3.66300366300365	3.66300366300365	
1.2385	3.66300366300365	3.66300366300365	
1.239	3.66300366300365	3.66300366300365	
1.2395	-1.22100122100122	3.66300366300365	
1.24	-1.22100122100122	3.66300366300365	
1.2405	-1.22100122100122	3.66300366300365	
1.241	-1.22100122100122	3.66300366300365	
1.2415	-1.22100122100122	3.66300366300365	
1.242	3.66300366300365	3.66300366300365	
1.2425	-1.22100122100122	3.66300366300365	
1.243	-1.22100122100122	3.66300366300365	
1.2435	-1.22100122100122	3.66300366300365	
1.244	3.66300366300365	3.66300366300365	
1.2445	3.66300366300365	3.66300366300365	
1.245	-1.22100122100122	3.66300366300365	
1.2455	-6.10500610500608	3.66300366300365	
1.246	-6.10500610500608	-1.22100122100122	
1.2465	-6.10500610500608	-1.22100122100122	
1.247	3.66300366300365	3.66300366300365	
1.2475	8.54700854700852	3.66300366300365	
1.248	13.4310134310134	8.54700854700852	
1.2485	18.3150183150183	13.4310134310134	
1.249	13.4310134310134	13.4310134310134	
1.2495	13.4310134310134	13.4310134310134	
1.25	13.4310134310134	8.54700854700852	
1.2505	13.4310134310134	8.54700854700852	
1.251	8.54700854700852	3.66300366300365	
1.2515	8.54700854700852	3.66300366300365	
1.252	8.54700854700852	3.66300366300365	
1.2525	8.54700854700852	3.66300366300365	
1.253	8.54700854700852	3.66300366300365	
1.2535	8.54700854700852	3.66300366300365	
1.254	3.66300366300365	3.66300366300365	
1.2545	3.66300366300365	3.66300366300365	
1.255	3.66300366300365	3.66300366300365	
1.2555	3.66300366300365	3.66300366300365	
1.256	3.66300366300365	3.66300366300365	
1.2565	3.66300366300365	-1.22100122100122	
1.257	3.66300366300365	3.66300366300365	
1.2575	3.66300366300365	3.66300366300365	
1.258	3.66300366300365	3.66300366300365	
1.2585	3.66300366300365	3.66300366300365	
1.259	3.66300366300365	3.66300366300365	
1.2595	3.66300366300365	3.66300366300365	
1.26	3.66300366300365	3.66300366300365	
1.2605	-1.22100122100122	3.66300366300365	
1.261	-1.22100122100122	3.66300366300365	
1.2615	-1.22100122100122	3.66300366300365	
1.262	-6.10500610500608	3.66300366300365	
1.2625	-6.10500610500608	-1.22100122100122	
1.263	-10.989010989011	-1.22100122100122	
1.2635	-15.8730158730158	3.66300366300365	
1.264	-15.8730158730158	3.66300366300365	
1.2645	-15.8730158730158	3.66300366300365	
1.265	-15.8730158730158	3.66300366300365	
1.2655	-10.989010989011	-1.22100122100122	
1.266	-1.22100122100122	3.66300366300365	
1.2665	3.66300366300365	8.54700854700852	
1.267	13.4310134310134	13.4310134310134	
1.2675	18.3150183150183	13.4310134310134	
1.268	23.1990231990231	18.3150183150183	
1.2685	23.1990231990231	18.3150183150183	
1.269	23.1990231990231	13.4310134310134	
1.2695	18.3150183150183	13.4310134310134	
1.27	18.3150183150183	8.54700854700852	
1.2705	13.4310134310134	3.66300366300365	
1.271	8.54700854700852	3.66300366300365	
1.2715	3.66300366300365	3.66300366300365	
1.272	3.66300366300365	3.66300366300365	
1.2725	3.66300366300365	3.66300366300365	
1.273	3.66300366300365	3.66300366300365	
1.2735	3.66300366300365	3.66300366300365	
1.274	3.66300366300365	3.66300366300365	
1.2745	3.66300366300365	3.66300366300365	
1.275	3.66300366300365	3.66300366300365	
1.2755	3.66300366300365	3.66300366300365	
1.276	3.66300366300365	3.66300366300365	
1.2765	3.66300366300365	3.66300366300365	
1.277	3.66300366300365	3.66300366300365	
1.2775	3.66300366300365	-1.22100122100122	
1.278	3.66300366300365	3.66300366300365	
1.2785	3.66300366300365	3.66300366300365	
1.279	3.66300366300365	3.66300366300365	
1.2795	3.66300366300365	3.66300366300365	
1.28	3.66300366300365	3.66300366300365	
1.2805	3.66300366300365	3.66300366300365	
1.281	3.66300366300365	3.66300366300365	
1.2815	3.66300366300365	3.66300366300365	
1.282	3.66300366300365	3.66300366300365	
1.2825	3.66300366300365	3.66300366300365	
1.283	3.66300366300365	3.66300366300365	
1.2835	3.66300366300365	3.66300366300365	
1.284	3.66300366300365	3.66300366300365	
1.2845	3.66300366300365	3.66300366300365	
1.285	3.66300366300365	3.66300366300365	
1.2855	3.66300366300365	3.66300366300365	
1.286	3.66300366300365	3.66300366300365	
1.2865	3.66300366300365	3.66300366300365	
1.287	3.66300366300365	3.66300366300365	
1.2875	3.66300366300365	3.66300366300365	
1.288	3.66300366300365	3.66300366300365	
1.2885	3.66300366300365	3.66300366300365	
1.289	3.66300366300365	3.66300366300365	
1.2895	-1.22100122100122	3.66300366300365	
1.29	-1.22100122100122	3.66300366300365	
1.2905	-1.22100122100122	3.66300366300365	
1.291	-1.22100122100122	3.66300366300365	
1.2915	-1.22100122100122	3.66300366300365	
1.292	-1.22100122100122	3.66300366300365	
1.2925	-1.22100122100122	3.66300366300365	
1.293	3.66300366300365	3.66300366300365	
1.2935	3.66300366300365	3.66300366300365	
1.294	3.66300366300365	3.66300366300365	
1.2945	3.66300366300365	3.66300366300365	
1.295	3.66300366300365	3.66300366300365	
1.2955	3.66300366300365	3.66300366300365	
1.296	3.66300366300365	3.66300366300365	
1.2965	3.66300366300365	3.66300366300365	
1.297	3.66300366300365	3.66300366300365	
1.2975	8.54700854700852	3.66300366300365	
1.298	8.54700854700852	3.66300366300365	
1.2985	3.66300366300365	3.66300366300365	
1.299	8.54700854700852	3.66300366300365	
1.2995	3.66300366300365	3.66300366300365	
1.3	3.66300366300365	3.66300366300365	
1.3005	3.66300366300365	3.66300366300365	
1.301	3.66300366300365	3.66300366300365	
1.3015	3.66300366300365	3.66300366300365	
1.302	8.54700854700852	3.66300366300365	
1.3025	3.66300366300365	3.66300366300365	
1.303	3.66300366300365	3.66300366300365	
1.3035	3.66300366300365	3.66300366300365	
1.304	3.66300366300365	3.66300366300365	
1.3045	3.66300366300365	3.66300366300365	
1.305	3.66300366300365	3.66300366300365	
1.3055	3.66300366300365	3.66300366300365	
1.306	3.66300366300365	3.66300366300365	
1.3065	3.66300366300365	3.66300366300365	
1.307	3.66300366300365	3.66300366300365	
1.3075	3.66300366300365	8.54700854700852	
1.308	3.66300366300365	3.66300366300365	
1.3085	3.66300366300365	3.66300366300365	
1.309	3.66300366300365	3.66300366300365	
1.3095	-1.22100122100122	3.66300366300365	
1.31	-1.22100122100122	3.66300366300365	
1.3105	3.66300366300365	3.66300366300365	
1.311	3.66300366300365	3.66300366300365	
1.3115	3.66300366300365	3.66300366300365	
1.312	3.66300366300365	3.66300366300365	
1.3125	3.66300366300365	3.66300366300365	
1.313	3.66300366300365	3.66300366300365	
1.3135	-1.22100122100122	3.66300366300365	
1.314	-1.22100122100122	3.66300366300365	
1.3145	3.66300366300365	3.66300366300365	
1.315	-1.22100122100122	3.66300366300365	
1.3155	-1.22100122100122	3.66300366300365	
1.316	-1.22100122100122	3.66300366300365	
1.3165	-1.22100122100122	3.66300366300365	
1.317	3.66300366300365	3.66300366300365	
1.3175	3.66300366300365	3.66300366300365	
1.318	3.66300366300365	3.66300366300365	
1.3185	3.66300366300365	3.66300366300365	
1.319	8.54700854700852	3.66300366300365	
1.3195	3.66300366300365	3.66300366300365	
1.32	3.66300366300365	3.66300366300365	
1.3205	3.66300366300365	3.66300366300365	
1.321	3.66300366300365	3.66300366300365	
1.3215	3.66300366300365	3.66300366300365	
1.322	3.66300366300365	3.66300366300365	
1.3225	8.54700854700852	3.66300366300365	
1.323	8.54700854700852	3.66300366300365	
1.3235	8.54700854700852	3.66300366300365	
1.324	8.54700854700852	3.66300366300365	
1.3245	8.54700854700852	3.66300366300365	
1.325	3.66300366300365	3.66300366300365	
1.3255	3.66300366300365	3.66300366300365	
1.326	3.66300366300365	3.66300366300365	
1.3265	3.66300366300365	3.66300366300365	
1.327	3.66300366300365	3.66300366300365	
1.3275	3.66300366300365	3.66300366300365	
1.328	3.66300366300365	3.66300366300365	
1.3285	-1.22100122100122	3.66300366300365	
1.329	-1.22100122100122	3.66300366300365	
1.3295	3.66300366300365	3.66300366300365	
1.33	3.66300366300365	3.66300366300365	
1.3305	8.54700854700852	3.66300366300365	
1.331	3.66300366300365	3.66300366300365	
1.3315	3.66300366300365	3.66300366300365	
1.332	3.66300366300365	3.66300366300365	
1.3325	3.66300366300365	3.66300366300365	
1.333	3.66300366300365	3.66300366300365	
1.3335	3.66300366300365	3.66300366300365	
1.334	3.66300366300365	3.66300366300365	
1.3345	8.54700854700852	3.66300366300365	
1.335	3.66300366300365	3.66300366300365	
1.3355	3.66300366300365	3.66300366300365	
1.336	3.66300366300365	3.66300366300365	
1.3365	3.66300366300365	3.66300366300365	
1.337	3.66300366300365	3.66300366300365	
1.3375	3.66300366300365	3.66300366300365	
1.338	3.66300366300365	3.66300366300365	
1.3385	3.66300366300365	3.66300366300365	
1.339	3.66300366300365	3.66300366300365	
1.3395	3.66300366300365	3.66300366300365	
1.34	3.66300366300365	3.66300366300365	
1.3405	3.66300366300365	3.66300366300365	
1.341	3.66300366300365	3.66300366300365	
1.3415	3.66300366300365	3.66300366300365	
1.342	3.66300366300365	3.66300366300365	
1.3425	-1.22100122100122	3.66300366300365	
1.343	-1.22100122100122	-1.22100122100122	
1.3435	-6.10500610500608	-1.22100122100122	
1.344	-1.22100122100122	3.66300366300365	
1.3445	-1.22100122100122	3.66300366300365	
1.345	-1.22100122100122	3.66300366300365	
1.3455	3.66300366300365	3.66300366300365	
1.346	3.66300366300365	3.66300366300365	
1.3465	3.66300366300365	3.66300366300365	
1.347	-1.22100122100122	3.66300366300365	
1.3475	-1.22100122100122	3.66300366300365	
1.348	-1.22100122100122	-1.22100122100122	
1.3485	-6.10500610500608	-1.22100122100122	
1.349	-1.22100122100122	-1.22100122100122	
1.3495	3.66300366300365	3.66300366300365	
1.35	3.66300366300365	3.66300366300365	
1.3505	3.66300366300365	3.66300366300365	
1.351	8.54700854700852	3.66300366300365	
1.3515	8.54700854700852	3.66300366300365	
1.352	8.54700854700852	8.54700854700852	
1.3525	8.54700854700852	8.54700854700852	
1.353	8.54700854700852	3.66300366300365	
1.3535	8.54700854700852	8.54700854700852	
1.354	8.54700854700852	8.54700854700852	
1.3545	8.54700854700852	3.66300366300365	
1.355	8.54700854700852	3.66300366300365	
1.3555	8.54700854700852	3.66300366300365	
1.356	8.54700854700852	3.66300366300365	
1.3565	3.66300366300365	3.66300366300365	
1.357	3.66300366300365	3.66300366300365	
1.3575	3.66300366300365	3.66300366300365	
1.358	3.66300366300365	3.66300366300365	
1.3585	3.66300366300365	3.66300366300365	
1.359	3.66300366300365	8.54700854700852	
1.3595	3.66300366300365	3.66300366300365	
1.36	3.66300366300365	3.66300366300365	
1.3605	3.66300366300365	3.66300366300365	
1.361	3.66300366300365	3.66300366300365	
1.3615	3.66300366300365	3.66300366300365	
1.362	3.66300366300365	8.54700854700852	
1.3625	3.66300366300365	3.66300366300365	
1.363	3.66300366300365	8.54700854700852	
1.3635	3.66300366300365	3.66300366300365	
1.364	3.66300366300365	3.66300366300365	
1.3645	3.66300366300365	3.66300366300365	
1.365	3.66300366300365	3.66300366300365	
1.3655	3.66300366300365	3.66300366300365	
1.366	3.66300366300365	3.66300366300365	
1.3665	3.66300366300365	3.66300366300365	
1.367	3.66300366300365	3.66300366300365	
1.3675	3.66300366300365	3.66300366300365	
1.368	3.66300366300365	3.66300366300365	
1.3685	3.66300366300365	3.66300366300365	
1.369	3.66300366300365	3.66300366300365	
1.3695	3.66300366300365	3.66300366300365	
1.37	3.66300366300365	3.66300366300365	
1.3705	3.66300366300365	3.66300366300365	
1.371	3.66300366300365	3.66300366300365	
1.3715	3.66300366300365	3.66300366300365	
1.372	3.66300366300365	3.66300366300365	
1.3725	3.66300366300365	3.66300366300365	
1.373	3.66300366300365	3.66300366300365	
1.3735	3.66300366300365	3.66300366300365	
1.374	3.66300366300365	3.66300366300365	
1.3745	3.66300366300365	3.66300366300365	
1.375	3.66300366300365	3.66300366300365	
1.3755	3.66300366300365	3.66300366300365	
1.376	3.66300366300365	3.66300366300365	
1.3765	3.66300366300365	3.66300366300365	
1.377	3.66300366300365	3.66300366300365	
1.3775	3.66300366300365	3.66300366300365	
1.378	3.66300366300365	3.66300366300365	
1.3785	3.66300366300365	3.66300366300365	
1.379	3.66300366300365	3.66300366300365	
1.3795	3.66300366300365	3.66300366300365	
1.38	3.66300366300365	3.66300366300365	
1.3805	3.66300366300365	3.66300366300365	
1.381	3.66300366300365	3.66300366300365	
1.3815	3.66300366300365	3.66300366300365	
1.382	3.66300366300365	3.66300366300365	
1.3825	3.66300366300365	3.66300366300365	
1.383	3.66300366300365	3.66300366300365	
1.3835	3.66300366300365	3.66300366300365	
1.384	3.66300366300365	-1.22100122100122	
1.3845	-1.22100122100122	-1.22100122100122	
1.385	-1.22100122100122	-1.22100122100122	
1.3855	-1.22100122100122	3.66300366300365	
1.386	3.66300366300365	3.66300366300365	
1.3865	3.66300366300365	3.66300366300365	
1.387	3.66300366300365	3.66300366300365	
1.3875	3.66300366300365	3.66300366300365	
1.388	3.66300366300365	3.66300366300365	
1.3885	3.66300366300365	3.66300366300365	
1.389	3.66300366300365	3.66300366300365	
1.3895	3.66300366300365	3.66300366300365	
1.39	8.54700854700852	3.66300366300365	
1.3905	8.54700854700852	3.66300366300365	
1.391	8.54700854700852	3.66300366300365	
1.3915	3.66300366300365	3.66300366300365	
1.392	3.66300366300365	3.66300366300365	
1.3925	3.66300366300365	3.66300366300365	
1.393	3.66300366300365	3.66300366300365	
1.3935	3.66300366300365	3.66300366300365	
1.394	3.66300366300365	3.66300366300365	
1.3945	3.66300366300365	3.66300366300365	
1.395	3.66300366300365	3.66300366300365	
1.3955	-1.22100122100122	3.66300366300365	
1.396	-1.22100122100122	3.66300366300365	
1.3965	-1.22100122100122	-1.22100122100122	
1.397	-1.22100122100122	3.66300366300365	
1.3975	3.66300366300365	3.66300366300365	
1.398	3.66300366300365	3.66300366300365	
1.3985	3.66300366300365	3.66300366300365	
1.399	3.66300366300365	3.66300366300365	
1.3995	3.66300366300365	3.66300366300365	
1.4	3.66300366300365	3.66300366300365	
1.4005	-1.22100122100122	-1.22100122100122	
1.401	-1.22100122100122	3.66300366300365	
1.4015	-1.22100122100122	3.66300366300365	
1.402	3.66300366300365	3.66300366300365	
1.4025	3.66300366300365	3.66300366300365	
1.403	3.66300366300365	3.66300366300365	
1.4035	-1.22100122100122	-1.22100122100122	
1.404	-10.989010989011	3.66300366300365	
1.4045	-6.10500610500608	3.66300366300365	
1.405	-1.22100122100122	8.54700854700852	
1.4055	3.66300366300365	3.66300366300365	
1.406	13.4310134310134	8.54700854700852	
1.4065	13.4310134310134	13.4310134310134	
1.407	13.4310134310134	13.4310134310134	
1.4075	13.4310134310134	8.54700854700852	
1.408	13.4310134310134	8.54700854700852	
1.4085	13.4310134310134	3.66300366300365	
1.409	13.4310134310134	3.66300366300365	
1.4095	13.4310134310134	3.66300366300365	
1.41	8.54700854700852	3.66300366300365	
1.4105	8.54700854700852	3.66300366300365	
1.411	8.54700854700852	3.66300366300365	
1.4115	3.66300366300365	3.66300366300365	
1.412	3.66300366300365	3.66300366300365	
1.4125	3.66300366300365	3.66300366300365	
1.413	3.66300366300365	3.66300366300365	
1.4135	3.66300366300365	3.66300366300365	
1.414	3.66300366300365	3.66300366300365	
1.4145	3.66300366300365	3.66300366300365	
1.415	3.66300366300365	3.66300366300365	
1.4155	3.66300366300365	3.66300366300365	
1.416	3.66300366300365	3.66300366300365	
1.4165	3.66300366300365	3.66300366300365	
1.417	3.66300366300365	3.66300366300365	
1.4175	3.66300366300365	3.66300366300365	
1.418	3.66300366300365	3.66300366300365	
1.4185	3.66300366300365	3.66300366300365	
1.419	3.66300366300365	3.66300366300365	
1.4195	3.66300366300365	3.66300366300365	
1.42	3.66300366300365	3.66300366300365	
1.4205	3.66300366300365	3.66300366300365	
1.421	3.66300366300365	3.66300366300365	
1.4215	3.66300366300365	3.66300366300365	
1.422	3.66300366300365	3.66300366300365	
1.4225	3.66300366300365	3.66300366300365	
1.423	-1.22100122100122	-1.22100122100122	
1.4235	3.66300366300365	3.66300366300365	
1.424	3.66300366300365	3.66300366300365	
1.4245	3.66300366300365	3.66300366300365	
1.425	3.66300366300365	3.66300366300365	
1.4255	3.66300366300365	3.66300366300365	
1.426	3.66300366300365	3.66300366300365	
1.4265	3.66300366300365	3.66300366300365	
1.427	3.66300366300365	3.66300366300365	
1.4275	3.66300366300365	3.66300366300365	
1.428	3.66300366300365	3.66300366300365	
1.4285	3.66300366300365	3.66300366300365	
1.429	3.66300366300365	3.66300366300365	
1.4295	3.66300366300365	3.66300366300365	
1.43	3.66300366300365	3.66300366300365	
1.4305	3.66300366300365	3.66300366300365	
1.431	3.66300366300365	3.66300366300365	
1.4315	3.66300366300365	3.66300366300365	
1.432	3.66300366300365	3.66300366300365	
1.4325	3.66300366300365	3.66300366300365	
1.433	3.66300366300365	3.66300366300365	
1.4335	3.66300366300365	3.66300366300365	
1.434	3.66300366300365	3.66300366300365	
1.4345	3.66300366300365	3.66300366300365	
1.435	3.66300366300365	3.66300366300365	
1.4355	3.66300366300365	3.66300366300365	
1.436	3.66300366300365	3.66300366300365	
1.4365	3.66300366300365	3.66300366300365	
1.437	3.66300366300365	3.66300366300365	
1.4375	3.66300366300365	3.66300366300365	
1.438	3.66300366300365	3.66300366300365	
1.4385	3.66300366300365	3.66300366300365	
1.439	3.66300366300365	3.66300366300365	
1.4395	3.66300366300365	3.66300366300365	
1.44	3.66300366300365	3.66300366300365	
1.4405	-1.22100122100122	3.66300366300365	
